# [DEFAULT]
# # input and output specifications
# dataformat = QA
# outputtype = gr
# 
# # PDF calculation setup
# mode = xray
# wavelength = 
# composition = Cl4.0Cr1.0Na1.0
# bgscale = 1.0
# rpoly = 0.9
# qmaxinst = 28
# qmin = 0.0
# qmax = 22
# rmin = 0.0
# rmax = 30.0
# rstep = 0.01
# 
# # End of config --------------------------------------------------------------
# 
# #### start data
# #S 1
# #L r(Å)  G(Å$^$)
# 
0.000000000000000000e+00 0.000000000000000000e+00
1.000000000000000021e-02 -4.017045269248890882e-03
2.000000000000000042e-02 -8.100244109399240902e-03
2.999999999999999889e-02 -1.231759274838537151e-02
4.000000000000000083e-02 -1.667848937593794170e-02
5.000000000000000278e-02 -2.117919375377189453e-02
5.999999999999999778e-02 -2.574371229360776850e-02
7.000000000000000666e-02 -3.025813471052108544e-02
8.000000000000000167e-02 -3.453505230145999250e-02
8.999999999999999667e-02 -3.838298825875770259e-02
1.000000000000000056e-01 -4.147780597289552063e-02
1.100000000000000006e-01 -4.365608426224509842e-02
1.199999999999999956e-01 -4.444280912139149387e-02
1.300000000000000044e-01 -4.381959569879111810e-02
1.400000000000000133e-01 -4.127058068556972020e-02
1.499999999999999944e-01 -3.691884939540212435e-02
1.600000000000000033e-01 -3.044606745209242626e-02
1.700000000000000122e-01 -2.205075392164507209e-02
1.799999999999999933e-01 -1.175755893666584687e-02
1.900000000000000022e-01 1.323570005966447430e-04
2.000000000000000111e-01 1.324222100886605913e-02
2.099999999999999922e-01 2.710565673128138495e-02
2.200000000000000011e-01 4.112786420425228184e-02
2.300000000000000100e-01 5.458731706379973264e-02
2.399999999999999911e-01 6.693467522467358433e-02
2.500000000000000000e-01 7.710574665475837530e-02
2.600000000000000089e-01 8.481447056310413568e-02
2.700000000000000178e-01 8.896017275144164904e-02
2.800000000000000266e-01 8.941207733095132837e-02
2.899999999999999800e-01 8.541870808747506483e-02
2.999999999999999889e-01 7.696347923259932999e-02
3.099999999999999978e-01 6.392500168919022785e-02
3.200000000000000067e-01 4.642106321573379046e-02
3.300000000000000155e-01 2.505360733841851401e-02
3.400000000000000244e-01 1.819393249075833621e-04
3.500000000000000333e-01 -2.702464407500458285e-02
3.599999999999999867e-01 -5.577317425147296226e-02
3.699999999999999956e-01 -8.471444150395335271e-02
3.800000000000000044e-01 -1.124389464067820921e-01
3.900000000000000133e-01 -1.377858335031899029e-01
4.000000000000000222e-01 -1.590227676226677045e-01
4.100000000000000311e-01 -1.751488280891208560e-01
4.199999999999999845e-01 -1.847036743863923747e-01
4.299999999999999933e-01 -1.867348768431923711e-01
4.400000000000000022e-01 -1.806371008839344205e-01
4.500000000000000111e-01 -1.654686809462393715e-01
4.600000000000000200e-01 -1.418536652124027797e-01
4.700000000000000289e-01 -1.089653658351176502e-01
4.799999999999999822e-01 -6.868519610964657351e-02
4.899999999999999911e-01 -2.058030026568367574e-02
5.000000000000000000e-01 3.273895083719305377e-02
5.100000000000000089e-01 9.044721645117949349e-02
5.200000000000000178e-01 1.501340063716317952e-01
5.300000000000000266e-01 2.098714216609972594e-01
5.400000000000000355e-01 2.673299049630692426e-01
5.500000000000000444e-01 3.202777354756663475e-01
5.600000000000000533e-01 3.662434263009869406e-01
5.700000000000000622e-01 4.036418661795955765e-01
5.799999999999999600e-01 4.296618550089577049e-01
5.899999999999999689e-01 4.442247185478168658e-01
5.999999999999999778e-01 4.441272522141337942e-01
6.099999999999999867e-01 4.310925350146220247e-01
6.199999999999999956e-01 4.024273101145321441e-01
6.300000000000000044e-01 3.607591114374710806e-01
6.400000000000000133e-01 3.052410416860343867e-01
6.500000000000000222e-01 2.384625252532987238e-01
6.600000000000000311e-01 1.616056383185044687e-01
6.700000000000000400e-01 7.727653536969139592e-02
6.800000000000000488e-01 -1.194618701558893686e-02
6.900000000000000577e-01 -1.031790762609659656e-01
7.000000000000000666e-01 -1.935103705059214030e-01
7.099999999999999645e-01 -2.794178778064001500e-01
7.199999999999999734e-01 -3.589116164109965035e-01
7.299999999999999822e-01 -4.275176760709498147e-01
7.399999999999999911e-01 -4.848316021125450015e-01
7.500000000000000000e-01 -5.267726789487818806e-01
7.600000000000000089e-01 -5.536211121723246809e-01
7.700000000000000178e-01 -5.629778961119232816e-01
7.800000000000000266e-01 -5.554005123598725335e-01
7.900000000000000355e-01 -5.307961042817813668e-01
8.000000000000000444e-01 -4.898694893056436683e-01
8.100000000000000533e-01 -4.347917520855610340e-01
8.200000000000000622e-01 -3.665640491993640837e-01
8.300000000000000711e-01 -2.889248473537501249e-01
8.399999999999999689e-01 -2.035513239784803030e-01
8.499999999999999778e-01 -1.145351807411718048e-01
8.599999999999999867e-01 -2.475113113561305811e-02
8.699999999999999956e-01 6.251870242434655334e-02
8.800000000000000044e-01 1.437079343828087108e-01
8.900000000000000133e-01 2.163748903715933813e-01
9.000000000000000222e-01 2.775224206480360611e-01
9.100000000000000311e-01 3.251548605473133513e-01
9.200000000000000400e-01 3.579882058446751669e-01
9.300000000000000488e-01 3.742207800776199411e-01
9.400000000000000577e-01 3.748986740989354027e-01
9.500000000000000666e-01 3.584173540499877020e-01
9.599999999999999645e-01 3.280879464823576730e-01
9.699999999999999734e-01 2.827921963421012319e-01
9.799999999999999822e-01 2.270546267533479767e-01
9.899999999999999911e-01 1.616719250706907252e-01
1.000000000000000000e+00 9.057499052542389295e-02
1.010000000000000009e+00 1.624294870860139989e-02
1.020000000000000018e+00 -5.791962925010320229e-02
1.030000000000000027e+00 -1.289653314532752393e-01
1.040000000000000036e+00 -1.937346541301654401e-01
1.050000000000000044e+00 -2.501137850916700378e-01
1.060000000000000053e+00 -2.949299571806100473e-01
1.070000000000000062e+00 -3.279356754878055003e-01
1.080000000000000071e+00 -3.458630810677289502e-01
1.090000000000000080e+00 -3.505993856200174674e-01
1.100000000000000089e+00 -3.396513114754116658e-01
1.110000000000000098e+00 -3.159867365796145688e-01
1.120000000000000107e+00 -2.791515284418600307e-01
1.130000000000000115e+00 -2.320741189774415125e-01
1.140000000000000124e+00 -1.763070314042173570e-01
1.150000000000000133e+00 -1.147156133682003948e-01
1.159999999999999920e+00 -4.998563018581133471e-02
1.169999999999999929e+00 1.489845878973099051e-02
1.179999999999999938e+00 7.731362721818983708e-02
1.189999999999999947e+00 1.339077765882825399e-01
1.199999999999999956e+00 1.833197178907628178e-01
1.209999999999999964e+00 2.216753974188677423e-01
1.219999999999999973e+00 2.493353062203005066e-01
1.229999999999999982e+00 2.632490538362179944e-01
1.239999999999999991e+00 2.644788625066381571e-01
1.250000000000000000e+00 2.518109790500824841e-01
1.260000000000000009e+00 2.266186272610592467e-01
1.270000000000000018e+00 1.897146169908390245e-01
1.280000000000000027e+00 1.426990991715330337e-01
1.290000000000000036e+00 8.795113693713735303e-02
1.300000000000000044e+00 2.743993310396135310e-02
1.310000000000000053e+00 -3.584235878130085512e-02
1.320000000000000062e+00 -9.928449155771290613e-02
1.330000000000000071e+00 -1.603959934264918841e-01
1.340000000000000080e+00 -2.158985297462697739e-01
1.350000000000000089e+00 -2.643715035331339891e-01
1.360000000000000098e+00 -3.028109962173108904e-01
1.370000000000000107e+00 -3.304915382977834382e-01
1.380000000000000115e+00 -3.457016572163245649e-01
1.390000000000000124e+00 -3.481100830734093488e-01
1.400000000000000133e+00 -3.378550195927984556e-01
1.409999999999999920e+00 -3.148863794809287353e-01
1.419999999999999929e+00 -2.811599594379693978e-01
1.429999999999999938e+00 -2.370175473535844624e-01
1.439999999999999947e+00 -1.856288198309454240e-01
1.449999999999999956e+00 -1.280171233323863511e-01
1.459999999999999964e+00 -6.752038643640388693e-02
1.469999999999999973e+00 -6.278182100408723210e-03
1.479999999999999982e+00 5.313300828380410762e-02
1.489999999999999991e+00 1.081359584119442607e-01
1.500000000000000000e+00 1.567117960087426876e-01
1.510000000000000009e+00 1.969063288682699753e-01
1.520000000000000018e+00 2.270036641391082466e-01
1.530000000000000027e+00 2.464874205380661598e-01
1.540000000000000036e+00 2.538085156933041486e-01
1.550000000000000044e+00 2.502392716745212575e-01
1.560000000000000053e+00 2.344549104187382826e-01
1.570000000000000062e+00 2.091817932948264180e-01
1.580000000000000071e+00 1.739816600591752582e-01
1.590000000000000080e+00 1.319157863049122414e-01
1.600000000000000089e+00 8.398967944344105929e-02
1.610000000000000098e+00 3.283873875582185575e-02
1.620000000000000107e+00 -1.959956929865360603e-02
1.630000000000000115e+00 -7.100854394184752394e-02
1.640000000000000124e+00 -1.194579029254729530e-01
1.650000000000000133e+00 -1.627733758140353371e-01
1.660000000000000142e+00 -1.999085307429261937e-01
1.669999999999999929e+00 -2.287082793454848773e-01
1.679999999999999938e+00 -2.495888008108792244e-01
1.689999999999999947e+00 -2.604384894895975244e-01
1.699999999999999956e+00 -2.629804988188219617e-01
1.709999999999999964e+00 -2.562012001789926163e-01
1.719999999999999973e+00 -2.420207932601933232e-01
1.729999999999999982e+00 -2.208698542608171222e-01
1.739999999999999991e+00 -1.946380405697628602e-01
1.750000000000000000e+00 -1.647971125608200804e-01
1.760000000000000009e+00 -1.332296957163491558e-01
1.770000000000000018e+00 -1.017190844543225947e-01
1.780000000000000027e+00 -7.225641508092166265e-02
1.790000000000000036e+00 -4.612401510308163088e-02
1.800000000000000044e+00 -2.552395064937219502e-02
1.810000000000000053e+00 -1.067714118807105116e-02
1.820000000000000062e+00 -3.676121724258551646e-03
1.830000000000000071e+00 -3.849423206273463408e-03
1.840000000000000080e+00 -1.234351058645335661e-02
1.850000000000000089e+00 -2.818957634757789446e-02
1.860000000000000098e+00 -5.126194103901719756e-02
1.870000000000000107e+00 -8.042693589812680011e-02
1.880000000000000115e+00 -1.144908333070205481e-01
1.890000000000000124e+00 -1.521390027762604957e-01
1.900000000000000133e+00 -1.916585452171496173e-01
1.910000000000000142e+00 -2.314385868601780694e-01
1.919999999999999929e+00 -2.699769319741555096e-01
1.929999999999999938e+00 -3.052377706083971298e-01
1.939999999999999947e+00 -3.364564862829407810e-01
1.949999999999999956e+00 -3.616561909708936873e-01
1.959999999999999964e+00 -3.806320209783468633e-01
1.969999999999999973e+00 -3.921261549574016625e-01
1.979999999999999982e+00 -3.962418345647562012e-01
1.989999999999999991e+00 -3.928144624779493221e-01
2.000000000000000000e+00 -3.821321042185122363e-01
2.010000000000000231e+00 -3.651165483093131159e-01
2.020000000000000018e+00 -3.422408757387692679e-01
2.030000000000000249e+00 -3.151564807538760338e-01
2.040000000000000036e+00 -2.846182693514525130e-01
2.049999999999999822e+00 -2.524064490815727257e-01
2.060000000000000053e+00 -2.197028950097854316e-01
2.069999999999999840e+00 -1.878521011060417800e-01
2.080000000000000071e+00 -1.581992124309833936e-01
2.089999999999999858e+00 -1.315821938298376570e-01
2.100000000000000089e+00 -1.089687502202662805e-01
2.109999999999999876e+00 -9.082473056668426137e-02
2.120000000000000107e+00 -7.733815682129606406e-02
2.129999999999999893e+00 -6.867055276818120890e-02
2.140000000000000124e+00 -6.414196334667125743e-02
2.149999999999999911e+00 -6.357716886980592508e-02
2.160000000000000142e+00 -6.567447234734742623e-02
2.169999999999999929e+00 -6.980387453554139088e-02
2.180000000000000160e+00 -7.453522490492010821e-02
2.189999999999999947e+00 -7.868491451876127862e-02
2.200000000000000178e+00 -8.111382816483143909e-02
2.209999999999999964e+00 -8.048898269408845396e-02
2.220000000000000195e+00 -7.592266774788941630e-02
2.229999999999999982e+00 -6.650343947975775882e-02
2.240000000000000213e+00 -5.153167254496382466e-02
2.250000000000000000e+00 -3.094025528016821486e-02
2.260000000000000231e+00 -4.224840827792557263e-03
2.270000000000000018e+00 2.770496152829782927e-02
2.280000000000000249e+00 6.503858943002797932e-02
2.290000000000000036e+00 1.061477804144055903e-01
2.300000000000000266e+00 1.505549248057680423e-01
2.310000000000000053e+00 1.965032282031635991e-01
2.319999999999999840e+00 2.427210018429398208e-01
2.330000000000000071e+00 2.876338477684735606e-01
2.339999999999999858e+00 3.296444100987782622e-01
2.350000000000000089e+00 3.672569676090831625e-01
2.359999999999999876e+00 3.992266335826098467e-01
2.370000000000000107e+00 4.240201436774377330e-01
2.379999999999999893e+00 4.413376354771260668e-01
2.390000000000000124e+00 4.495636576252425853e-01
2.399999999999999911e+00 4.496816927437715106e-01
2.410000000000000142e+00 4.400826341899226612e-01
2.419999999999999929e+00 4.227673091843142106e-01
2.430000000000000160e+00 3.970991679280826969e-01
2.439999999999999947e+00 3.650741995900919079e-01
2.450000000000000178e+00 3.272983299172276261e-01
2.459999999999999964e+00 2.856129257321303738e-01
2.470000000000000195e+00 2.414519006201304996e-01
2.479999999999999982e+00 1.965904599702650857e-01
2.490000000000000213e+00 1.526190135544421289e-01
2.500000000000000000e+00 1.113914326963174467e-01
2.510000000000000231e+00 7.394348788260668437e-02
2.520000000000000018e+00 4.231941671393324444e-02
2.530000000000000249e+00 1.653390033955018032e-02
2.540000000000000036e+00 -1.463154666756720512e-03
2.550000000000000266e+00 -1.247012431604645373e-02
2.560000000000000053e+00 -1.543213500609443359e-02
2.569999999999999840e+00 -1.135654877121435209e-02
2.580000000000000071e+00 -3.744465106224389300e-04
2.589999999999999858e+00 1.640772525266435966e-02
2.600000000000000089e+00 3.787564419309701752e-02
2.609999999999999876e+00 6.279700850294965553e-02
2.620000000000000107e+00 8.958053516603627087e-02
2.629999999999999893e+00 1.167527331634447968e-01
2.640000000000000124e+00 1.429105134363945762e-01
2.649999999999999911e+00 1.662150011802986660e-01
2.660000000000000142e+00 1.859401572421680859e-01
2.669999999999999929e+00 2.002915920704592956e-01
2.680000000000000160e+00 2.090845984680784475e-01
2.689999999999999947e+00 2.111764366286263128e-01
2.700000000000000178e+00 2.066874330226856626e-01
2.709999999999999964e+00 1.954797728947299529e-01
2.720000000000000195e+00 1.778761488958029158e-01
2.729999999999999982e+00 1.547425709771649005e-01
2.740000000000000213e+00 1.266239216296004555e-01
2.750000000000000000e+00 9.505769606485114931e-02
2.760000000000000231e+00 6.093041072959701904e-02
2.770000000000000018e+00 2.588715028724159276e-02
2.780000000000000249e+00 -8.702311161469213768e-03
2.790000000000000036e+00 -4.158678075532757507e-02
2.800000000000000266e+00 -7.121041271284611618e-02
2.810000000000000053e+00 -9.673010637836834680e-02
2.819999999999999840e+00 -1.169671575778495343e-01
2.830000000000000071e+00 -1.313343126791505500e-01
2.839999999999999858e+00 -1.394774399646549201e-01
2.850000000000000089e+00 -1.409766424140658780e-01
2.859999999999999876e+00 -1.364671219459273610e-01
2.870000000000000107e+00 -1.257130415426205849e-01
2.879999999999999893e+00 -1.101815571175976671e-01
2.890000000000000124e+00 -8.994105226361912009e-02
2.899999999999999911e+00 -6.679269936982305811e-02
2.910000000000000142e+00 -4.147525673720481310e-02
2.919999999999999929e+00 -1.548926340056452390e-02
2.930000000000000160e+00 9.979352776751517634e-03
2.939999999999999947e+00 3.372745466890845339e-02
2.950000000000000178e+00 5.466415438590990772e-02
2.959999999999999964e+00 7.178138288699170699e-02
2.970000000000000195e+00 8.457046479879236356e-02
2.979999999999999982e+00 9.215323835191958912e-02
2.990000000000000213e+00 9.487875862985262199e-02
3.000000000000000000e+00 9.202161053101884369e-02
3.010000000000000231e+00 8.472146611933130400e-02
3.020000000000000018e+00 7.269178724766266197e-02
3.030000000000000249e+00 5.737605576489077791e-02
3.040000000000000036e+00 3.924667424647999142e-02
3.050000000000000266e+00 1.962029005023615755e-02
3.060000000000000053e+00 -5.013169322141790285e-04
3.070000000000000284e+00 -1.990454934045812405e-02
3.080000000000000071e+00 -3.755082141433882525e-02
3.089999999999999858e+00 -5.226090127338568758e-02
3.100000000000000089e+00 -6.345022591665222533e-02
3.109999999999999876e+00 -6.992751624139618982e-02
3.120000000000000107e+00 -7.190810914457168579e-02
3.129999999999999893e+00 -6.822085065459917996e-02
3.140000000000000124e+00 -5.983120028122105444e-02
3.149999999999999911e+00 -4.616530125838299442e-02
3.160000000000000142e+00 -2.835323907617440589e-02
3.169999999999999929e+00 -6.658329328460534102e-03
3.180000000000000160e+00 1.778537517186435865e-02
3.189999999999999947e+00 4.409055096586187578e-02
3.200000000000000178e+00 7.109896122261853690e-02
3.209999999999999964e+00 9.773299748513089580e-02
3.220000000000000195e+00 1.227367027966015656e-01
3.229999999999999982e+00 1.453413173392436031e-01
3.240000000000000213e+00 1.641283020857957908e-01
3.250000000000000000e+00 1.790014936959520020e-01
3.260000000000000231e+00 1.885581718712097954e-01
3.270000000000000018e+00 1.932866501744351373e-01
3.280000000000000249e+00 1.923767129803891918e-01
3.290000000000000036e+00 1.864837290783173951e-01
3.300000000000000266e+00 1.756284219177957906e-01
3.310000000000000053e+00 1.605505298036954687e-01
3.320000000000000284e+00 1.419876619669700746e-01
3.330000000000000071e+00 1.207740063656085744e-01
3.339999999999999858e+00 9.802285985367972798e-02
3.350000000000000089e+00 7.473587376240256597e-02
3.359999999999999876e+00 5.193438286641690466e-02
3.370000000000000107e+00 3.086874056531643817e-02
3.379999999999999893e+00 1.210322821660683550e-02
3.390000000000000124e+00 -3.123144015311091377e-03
3.399999999999999911e+00 -1.465137318174932098e-02
3.410000000000000142e+00 -2.168275056868965503e-02
3.419999999999999929e+00 -2.429773817702202479e-02
3.430000000000000160e+00 -2.239643315072646287e-02
3.439999999999999947e+00 -1.622618173315228118e-02
3.450000000000000178e+00 -6.386883989764340248e-03
3.459999999999999964e+00 6.696061633876837851e-03
3.470000000000000195e+00 2.196323019800706239e-02
3.479999999999999982e+00 3.873299580312748736e-02
3.490000000000000213e+00 5.589113706362889428e-02
3.500000000000000000e+00 7.242002596134836101e-02
3.510000000000000231e+00 8.749938408835927772e-02
3.520000000000000018e+00 1.000166042017679030e-01
3.530000000000000249e+00 1.094481817957737441e-01
3.540000000000000036e+00 1.149959620890847189e-01
3.550000000000000266e+00 1.163361055072595213e-01
3.560000000000000053e+00 1.132924582187886942e-01
3.570000000000000284e+00 1.056938086233878277e-01
3.580000000000000071e+00 9.407500842123760199e-02
3.589999999999999858e+00 7.844874095855791651e-02
3.600000000000000089e+00 5.990560382813265444e-02
3.609999999999999876e+00 3.874675373775934850e-02
3.620000000000000107e+00 1.624159349844692818e-02
3.629999999999999893e+00 -6.830625193537911283e-03
3.640000000000000124e+00 -2.942196739303669720e-02
3.649999999999999911e+00 -5.050220612185357671e-02
3.660000000000000142e+00 -6.922553047111831837e-02
3.669999999999999929e+00 -8.474228744803270763e-02
3.680000000000000160e+00 -9.632774930362991705e-02
3.689999999999999947e+00 -1.036819496227709136e-01
3.700000000000000178e+00 -1.061587491308138009e-01
3.709999999999999964e+00 -1.041957326309642107e-01
3.720000000000000195e+00 -9.725874784391115579e-02
3.729999999999999982e+00 -8.643208893194248565e-02
3.740000000000000213e+00 -7.153456309144932967e-02
3.750000000000000000e+00 -5.387095954715585139e-02
3.760000000000000231e+00 -3.389091820934171662e-02
3.770000000000000018e+00 -1.274516832621701290e-02
3.780000000000000249e+00 8.690091928581424041e-03
3.790000000000000036e+00 2.938061634258543400e-02
3.800000000000000266e+00 4.844622520666674176e-02
3.810000000000000053e+00 6.489968956765972130e-02
3.820000000000000284e+00 7.826545445415908353e-02
3.830000000000000071e+00 8.755739074148524703e-02
3.839999999999999858e+00 9.298327146979813718e-02
3.850000000000000089e+00 9.358070164217159592e-02
3.859999999999999876e+00 9.018925843275907295e-02
