# [DEFAULT]
# # input and output specifications
# dataformat = QA
# outputtype = gr
# 
# # PDF calculation setup
# mode = xray
# wavelength = 
# composition = Cl4.0Cr1.0Na1.0
# bgscale = 1.0
# rpoly = 0.9
# qmaxinst = 28
# qmin = 0.0
# qmax = 22
# rmin = 0.0
# rmax = 30.0
# rstep = 0.01
# 
# # End of config --------------------------------------------------------------
# 
# #### start data
# #S 1
# #L r(Å)  G(Å$^$)
# 
0.000000000000000000e+00 0.000000000000000000e+00
1.000000000000000021e-02 -3.893212053626589775e-03
2.000000000000000042e-02 -7.856001197161659871e-03
2.999999999999999889e-02 -1.196064603352069849e-02
4.000000000000000083e-02 -1.621898999537518468e-02
5.000000000000000278e-02 -2.063129721010525941e-02
5.999999999999999778e-02 -2.512368452992121137e-02
7.000000000000000666e-02 -2.958474025686677264e-02
8.000000000000000167e-02 -3.382934664874027303e-02
8.999999999999999667e-02 -3.766614880300820506e-02
1.000000000000000056e-01 -4.077374692273555423e-02
1.100000000000000006e-01 -4.298609088580791077e-02
1.199999999999999956e-01 -4.383128447188722882e-02
1.300000000000000044e-01 -4.328609457677477790e-02
1.400000000000000133e-01 -4.083669455138062843e-02
1.499999999999999944e-01 -3.660098380293511783e-02
1.600000000000000033e-01 -3.026012807969791218e-02
1.700000000000000122e-01 -2.200818580802460164e-02
1.799999999999999933e-01 -1.186702755846381907e-02
1.900000000000000022e-01 -1.335768690081881593e-04
2.000000000000000111e-01 1.281938632505273332e-02
2.099999999999999922e-01 2.653030364168447106e-02
2.200000000000000011e-01 4.040822282100321045e-02
2.300000000000000100e-01 5.373803105333751357e-02
2.399999999999999911e-01 6.597255998064491256e-02
2.500000000000000000e-01 7.605673596270898229e-02
2.600000000000000089e-01 8.370454594755866173e-02
2.700000000000000178e-01 8.782478289264027127e-02
2.800000000000000266e-01 8.828711094733504572e-02
2.899999999999999800e-01 8.434770470383615160e-02
2.999999999999999889e-01 7.599182859049244398e-02
3.099999999999999978e-01 6.310229784713011769e-02
3.200000000000000067e-01 4.580086265040746868e-02
3.300000000000000155e-01 2.468881234578249040e-02
3.400000000000000244e-01 1.317183460553877569e-04
3.500000000000000333e-01 -2.670760008766893262e-02
3.599999999999999867e-01 -5.502818074921646263e-02
3.699999999999999956e-01 -8.349245927072214413e-02
3.800000000000000044e-01 -1.106853854111945201e-01
3.900000000000000133e-01 -1.354590964832459166e-01
4.000000000000000222e-01 -1.560828181706123419e-01
4.100000000000000311e-01 -1.715679777950181173e-01
4.199999999999999845e-01 -1.804632251921301500e-01
4.299999999999999933e-01 -1.818300124341713231e-01
4.400000000000000022e-01 -1.750769867448113137e-01
4.500000000000000111e-01 -1.592812566088745996e-01
4.600000000000000200e-01 -1.350814346490653017e-01
4.700000000000000289e-01 -1.016788923281993912e-01
4.799999999999999822e-01 -6.096386055684026306e-02
4.899999999999999911e-01 -1.254584787565837453e-02
5.000000000000000000e-01 4.096418820565288915e-02
5.100000000000000089e-01 9.869529380188094003e-02
5.200000000000000178e-01 1.582338737828040964e-01
5.300000000000000266e-01 2.176141564075364243e-01
5.400000000000000355e-01 2.744967280749187055e-01
5.500000000000000444e-01 3.266285716109565973e-01
5.600000000000000533e-01 3.715186455861085868e-01
5.700000000000000622e-01 4.075845961963575625e-01
5.799999999999999600e-01 4.319850865254263872e-01
5.899999999999999689e-01 4.446727850247494396e-01
5.999999999999999778e-01 4.424059283445365698e-01
6.099999999999999867e-01 4.269634617466530613e-01
6.199999999999999956e-01 3.956232392586767066e-01
6.300000000000000044e-01 3.510732034634604370e-01
6.400000000000000133e-01 2.924674015971029384e-01
6.500000000000000222e-01 2.224474334588431301e-01
6.600000000000000311e-01 1.422254700372624359e-01
6.700000000000000400e-01 5.445746965364046954e-02
6.800000000000000488e-01 -3.823056843397587556e-02
6.900000000000000577e-01 -1.328989600979433860e-01
7.000000000000000666e-01 -2.265881225706256608e-01
7.099999999999999645e-01 -3.157027354853936818e-01
7.199999999999999734e-01 -3.982244362235071167e-01
7.299999999999999822e-01 -4.695789732911954673e-01
7.399999999999999911e-01 -5.293609565979211506e-01
7.500000000000000000e-01 -5.733899270353580713e-01
7.600000000000000089e-01 -6.019475429849632242e-01
7.700000000000000178e-01 -6.125618680180290321e-01
7.800000000000000266e-01 -6.057839430480046472e-01
7.900000000000000355e-01 -5.814913310638410993e-01
8.000000000000000444e-01 -5.403687978669884373e-01
8.100000000000000533e-01 -4.846100816229721997e-01
8.200000000000000622e-01 -4.151819517841517371e-01
8.300000000000000711e-01 -3.358974428460038686e-01
8.399999999999999689e-01 -2.483897989134785378e-01
8.499999999999999778e-01 -1.568612283353195691e-01
8.599999999999999867e-01 -6.416070992118197425e-02
8.699999999999999956e-01 2.632144775616981902e-02
8.800000000000000044e-01 1.110018783816483223e-01
8.900000000000000133e-01 1.873541187769085792e-01
9.000000000000000222e-01 2.523312512402429153e-01
9.100000000000000311e-01 3.038678776301004247e-01
9.200000000000000400e-01 3.406202623235888849e-01
9.300000000000000488e-01 3.607222455809694361e-01
9.400000000000000577e-01 3.651732555305051697e-01
9.500000000000000666e-01 3.523008166456902401e-01
9.599999999999999645e-01 3.254014970775383486e-01
9.699999999999999734e-01 2.832803348832031443e-01
9.799999999999999822e-01 2.304817329655807490e-01
9.899999999999999911e-01 1.677440858648877597e-01
1.000000000000000000e+00 9.902599767841921419e-02
1.010000000000000009e+00 2.678360806548828188e-02
1.020000000000000018e+00 -4.555084077100270135e-02
1.030000000000000027e+00 -1.150163963915084298e-01
1.040000000000000036e+00 -1.784276423715228377e-01
1.050000000000000044e+00 -2.336290900055518482e-01
1.060000000000000053e+00 -2.774213900290666279e-01
1.070000000000000062e+00 -3.095024109549168179e-01
1.080000000000000071e+00 -3.265722387341361554e-01
1.090000000000000080e+00 -3.304684026891306914e-01
1.100000000000000089e+00 -3.186562601765786651e-01
1.110000000000000098e+00 -2.940710398104073309e-01
1.120000000000000107e+00 -2.562175940678529384e-01
1.130000000000000115e+00 -2.080056974678555215e-01
1.140000000000000124e+00 -1.509617176135814587e-01
1.150000000000000133e+00 -8.794105282441208593e-02
1.159999999999999920e+00 -2.162746805037166903e-02
1.169999999999999929e+00 4.499815475416106547e-02
1.179999999999999938e+00 1.092896405906296636e-01
1.189999999999999947e+00 1.678908584383561886e-01
1.199999999999999956e+00 2.193996918557762354e-01
1.209999999999999964e+00 2.599261466261039710e-01
1.219999999999999973e+00 2.897858764013850341e-01
1.229999999999999982e+00 3.058950512397959343e-01
1.239999999999999991e+00 3.092791389851539674e-01
1.250000000000000000e+00 2.986833870657319423e-01
1.260000000000000009e+00 2.754493497440660410e-01
1.270000000000000018e+00 2.403572220940946857e-01
1.280000000000000027e+00 1.949767377172936245e-01
1.290000000000000036e+00 1.416762433184453052e-01
1.300000000000000044e+00 8.239355235721637638e-02
1.310000000000000053e+00 2.013955287010098238e-02
1.320000000000000062e+00 -4.250606139228675640e-02
1.330000000000000071e+00 -1.030079579588546318e-01
1.340000000000000080e+00 -1.581065587340601264e-01
1.350000000000000089e+00 -2.063288703791596179e-01
1.360000000000000098e+00 -2.446631147139718132e-01
1.370000000000000107e+00 -2.723379700890667943e-01
1.380000000000000115e+00 -2.876128200634133214e-01
1.390000000000000124e+00 -2.901152322316445376e-01
1.400000000000000133e+00 -2.799475287525549083e-01
1.409999999999999920e+00 -2.570196822657678792e-01
1.419999999999999929e+00 -2.232606507292180797e-01
1.429999999999999938e+00 -1.789704480256134322e-01
1.439999999999999947e+00 -1.273139626565967242e-01
1.449999999999999956e+00 -6.927020480147083603e-02
1.459999999999999964e+00 -8.195887685377883577e-03
1.469999999999999973e+00 5.379753983743233714e-02
1.479999999999999982e+00 1.141078945087964092e-01
1.489999999999999991e+00 1.701598308534088555e-01
1.500000000000000000e+00 2.199059257980900961e-01
1.510000000000000009e+00 2.613701120209622752e-01
1.520000000000000018e+00 2.928045714219344453e-01
1.530000000000000027e+00 3.136575882779966129e-01
1.540000000000000036e+00 3.223416346940392030e-01
1.550000000000000044e+00 3.200953227420344493e-01
1.560000000000000053e+00 3.055448265879874281e-01
1.570000000000000062e+00 2.813983199019010617e-01
1.580000000000000071e+00 2.471615930708573605e-01
1.590000000000000080e+00 2.058942635278909750e-01
1.600000000000000089e+00 1.585575718699616110e-01
1.610000000000000098e+00 1.077908646812888865e-01
1.620000000000000107e+00 5.551240730796933032e-02
1.630000000000000115e+00 4.044589688965292279e-03
1.640000000000000124e+00 -4.467210172785004291e-02
1.650000000000000133e+00 -8.845675962487876964e-02
1.660000000000000142e+00 -1.262272526324793864e-01
1.669999999999999929e+00 -1.558186634628804523e-01
1.679999999999999938e+00 -1.775970906391958204e-01
1.689999999999999947e+00 -1.894337438984052824e-01
1.699999999999999956e+00 -1.930032148732351571e-01
1.709999999999999964e+00 -1.872621187138009680e-01
1.719999999999999973e+00 -1.740965344196466202e-01
1.729999999999999982e+00 -1.539050660985299412e-01
1.739999999999999991e+00 -1.285548146572154937e-01
1.750000000000000000e+00 -9.949776051169506585e-02
1.760000000000000009e+00 -6.860304472022482614e-02
1.770000000000000018e+00 -3.765563423026919987e-02
1.780000000000000027e+00 -8.642633971170765594e-03
1.790000000000000036e+00 1.712935659082913745e-02
1.800000000000000044e+00 3.744871411196027539e-02
1.810000000000000053e+00 5.205571014005019176e-02
1.820000000000000062e+00 5.882663183578491772e-02
1.830000000000000071e+00 5.839196893553853795e-02
1.840000000000000080e+00 4.955465214573422095e-02
1.850000000000000089e+00 3.324258724845650936e-02
1.860000000000000098e+00 9.526557394260594391e-03
1.870000000000000107e+00 -2.050551464532007762e-02
1.880000000000000115e+00 -5.569936875591338654e-02
1.890000000000000124e+00 -9.479618620239470272e-02
1.900000000000000133e+00 -1.360888930943177089e-01
1.910000000000000142e+00 -1.780354906753054411e-01
1.919999999999999929e+00 -2.190936728619933827e-01
1.929999999999999938e+00 -2.573081958708722250e-01
1.939999999999999947e+00 -2.918374592971221260e-01
1.949999999999999956e+00 -3.207536965426023290e-01
1.959999999999999964e+00 -3.437799886813653893e-01
1.969999999999999973e+00 -3.596585554691160147e-01
1.979999999999999982e+00 -3.684297424508288787e-01
1.989999999999999991e+00 -3.698873397858661316e-01
2.000000000000000000e+00 -3.642606286682912309e-01
2.010000000000000231e+00 -3.524060877836174277e-01
2.020000000000000018e+00 -3.347330797157105353e-01
2.030000000000000249e+00 -3.128278392586108514e-01
2.040000000000000036e+00 -2.873658262039742173e-01
2.049999999999999822e+00 -2.600845048850166097e-01
2.060000000000000053e+00 -2.320699883880088799e-01
2.069999999999999840e+00 -2.046496645912681822e-01
2.080000000000000071e+00 -1.790825550750574646e-01
2.089999999999999858e+00 -1.561962197669998498e-01
2.100000000000000089e+00 -1.369049767675766249e-01
2.109999999999999876e+00 -1.216608358833076026e-01
2.120000000000000107e+00 -1.106441267066441553e-01
2.129999999999999893e+00 -1.039934316890118310e-01
2.140000000000000124e+00 -1.010699917016518873e-01
2.149999999999999911e+00 -1.016660561308338484e-01
2.160000000000000142e+00 -1.045635675201706388e-01
2.169999999999999929e+00 -1.090946846730141695e-01
2.180000000000000160e+00 -1.139321066097781776e-01
2.189999999999999947e+00 -1.178835277815569599e-01
2.200000000000000178e+00 -1.198908225521314458e-01
2.209999999999999964e+00 -1.186448505765908407e-01
2.220000000000000195e+00 -1.133177747171533051e-01
2.229999999999999982e+00 -1.030384705453901012e-01
2.240000000000000213e+00 -8.715301368355343747e-02
2.250000000000000000e+00 -6.563394099540346971e-02
2.260000000000000231e+00 -3.801538432449546451e-02
2.270000000000000018e+00 -5.232151602305876170e-03
2.280000000000000249e+00 3.286872990930606725e-02
2.290000000000000036e+00 7.465499103129813463e-02
2.300000000000000266e+00 1.196167780281122139e-01
2.310000000000000053e+00 1.660088725633045437e-01
2.319999999999999840e+00 2.125424547293338073e-01
2.330000000000000071e+00 2.576584686400316127e-01
2.339999999999999858e+00 2.997607356558915082e-01
2.350000000000000089e+00 3.373694304536961619e-01
2.359999999999999876e+00 3.692553601141116970e-01
2.370000000000000107e+00 3.939013925724174081e-01
2.379999999999999893e+00 4.110305726734401754e-01
2.390000000000000124e+00 4.190454036901873902e-01
2.399999999999999911e+00 4.189507886363608713e-01
2.410000000000000142e+00 4.091596971279182759e-01
2.419999999999999929e+00 3.916864928541892166e-01
2.430000000000000160e+00 3.659178113130550081e-01
2.439999999999999947e+00 3.338563671635416119e-01
2.450000000000000178e+00 2.961257973429503032e-01
2.459999999999999964e+00 2.545712771443753852e-01
2.470000000000000195e+00 2.106341785854279336e-01
2.479999999999999982e+00 1.660932419304090024e-01
2.490000000000000213e+00 1.225345022258625266e-01
2.500000000000000000e+00 8.181638788599940315e-02
2.510000000000000231e+00 4.495980706305972852e-02
2.520000000000000018e+00 1.401462755212751210e-02
2.530000000000000249e+00 -1.102546740716863274e-02
2.540000000000000036e+00 -2.820715893600983168e-02
2.550000000000000266e+00 -3.834833929497921678e-02
2.560000000000000053e+00 -4.039633878617944485e-02
2.569999999999999840e+00 -3.537172121627801119e-02
2.580000000000000071e+00 -2.341103616569207083e-02
2.589999999999999858e+00 -5.628593052636284531e-03
2.600000000000000089e+00 1.685604686655826912e-02
2.609999999999999876e+00 4.280717697649100151e-02
2.620000000000000107e+00 7.063053699172036626e-02
2.629999999999999893e+00 9.885329456832096795e-02
2.640000000000000124e+00 1.260718017388275380e-01
2.649999999999999911e+00 1.504520972549549807e-01
2.660000000000000142e+00 1.712690216586899294e-01
2.669999999999999929e+00 1.867359242208309067e-01
2.680000000000000160e+00 1.966702853344002577e-01
2.689999999999999947e+00 1.999373790816832142e-01
2.700000000000000178e+00 1.966607619468134782e-01
2.709999999999999964e+00 1.867078755725667671e-01
2.720000000000000195e+00 1.704052859144374876e-01
2.729999999999999982e+00 1.486186945434734008e-01
2.740000000000000213e+00 1.218965586495004139e-01
2.750000000000000000e+00 9.176895832493292549e-02
2.760000000000000231e+00 5.912365482860532789e-02
2.770000000000000018e+00 2.559217693959037546e-02
2.780000000000000249e+00 -7.461118996012510406e-03
2.790000000000000036e+00 -3.880119305763775339e-02
2.800000000000000266e+00 -6.688702069262925098e-02
2.810000000000000053e+00 -9.089302479109147292e-02
2.819999999999999840e+00 -1.096617333123774130e-01
2.830000000000000071e+00 -1.226275166408984513e-01
2.839999999999999858e+00 -1.294572754389744229e-01
2.850000000000000089e+00 -1.297603771179915155e-01
2.859999999999999876e+00 -1.241844388051088210e-01
2.870000000000000107e+00 -1.125340563394107013e-01
2.879999999999999893e+00 -9.627140853862625747e-02
2.890000000000000124e+00 -7.551893527319084032e-02
2.899999999999999911e+00 -5.205490503950125497e-02
2.910000000000000142e+00 -2.666558567779091227e-02
2.919999999999999929e+00 -8.288918350128327527e-04
2.930000000000000160e+00 2.424349648437746155e-02
2.939999999999999947e+00 4.736568012892993645e-02
2.950000000000000178e+00 6.744758325355310058e-02
2.959999999999999964e+00 8.349342419905320112e-02
2.970000000000000195e+00 9.502058307338245857e-02
2.979999999999999982e+00 1.011615228145199274e-01
2.990000000000000213e+00 1.023098123491619910e-01
3.000000000000000000e+00 9.775482507973626278e-02
3.010000000000000231e+00 8.868713542759898427e-02
3.020000000000000018e+00 7.484800874434488493e-02
3.030000000000000249e+00 5.772479158670692362e-02
3.040000000000000036e+00 3.783041084694083178e-02
3.050000000000000266e+00 1.651632752465768961e-02
3.060000000000000053e+00 -5.174870488300909940e-03
3.070000000000000284e+00 -2.599773336859087514e-02
3.080000000000000071e+00 -4.488707431645509727e-02
3.089999999999999858e+00 -6.062978996932699011e-02
3.100000000000000089e+00 -7.264012261191638009e-02
3.109999999999999876e+00 -7.968851010395748558e-02
3.120000000000000107e+00 -8.202004868368920065e-02
3.129999999999999893e+00 -7.842205343170653709e-02
3.140000000000000124e+00 -6.991281394334378230e-02
3.149999999999999911e+00 -5.589770682546574970e-02
3.160000000000000142e+00 -3.755681674451490093e-02
3.169999999999999929e+00 -1.516209365198067580e-02
3.180000000000000160e+00 1.010905958928782870e-02
3.189999999999999947e+00 3.733894670972404822e-02
3.200000000000000178e+00 6.532949533866487524e-02
3.209999999999999964e+00 9.296465015057810144e-02
3.220000000000000195e+00 1.189473507962980764e-01
3.229999999999999982e+00 1.424777068212738085e-01
3.240000000000000213e+00 1.620901843980515900e-01
3.250000000000000000e+00 1.776767962342137297e-01
3.260000000000000231e+00 1.877845563687607355e-01
3.270000000000000018e+00 1.929080132061972985e-01
3.280000000000000249e+00 1.922007514004256401e-01
3.290000000000000036e+00 1.863293787021800541e-01
3.300000000000000266e+00 1.753026318213696255e-01
3.310000000000000053e+00 1.598726436575151066e-01
3.320000000000000284e+00 1.407901396297682739e-01
3.330000000000000071e+00 1.189021347202817436e-01
3.339999999999999858e+00 9.535420571549763080e-02
3.350000000000000089e+00 7.116320062787806489e-02
3.359999999999999876e+00 4.739086276004461640e-02
3.370000000000000107e+00 2.530848594002168758e-02
3.379999999999999893e+00 5.516072504694828800e-03
3.390000000000000124e+00 -1.071894434210618821e-02
3.399999999999999911e+00 -2.321409498045275480e-02
3.410000000000000142e+00 -3.114358593572047473e-02
3.419999999999999929e+00 -3.457322056827191736e-02
3.430000000000000160e+00 -3.338770508314078955e-02
3.439999999999999947e+00 -2.782519477433751526e-02
3.450000000000000178e+00 -1.848749347862841536e-02
3.459999999999999964e+00 -5.794758151779731692e-03
3.470000000000000195e+00 9.174903215419586561e-03
3.479999999999999982e+00 2.574069667904560835e-02
3.490000000000000213e+00 4.275970504752368145e-02
3.500000000000000000e+00 5.920716467581404324e-02
3.510000000000000231e+00 7.423520445751566332e-02
3.520000000000000018e+00 8.671550734528009341e-02
3.530000000000000249e+00 9.610452216755926980e-02
3.540000000000000036e+00 1.015877153124536830e-01
3.550000000000000266e+00 1.028282098075607720e-01
3.560000000000000053e+00 9.964171038038124872e-02
3.570000000000000284e+00 9.185105000413827658e-02
3.580000000000000071e+00 7.999603393930056205e-02
3.589999999999999858e+00 6.409226237655230030e-02
3.600000000000000089e+00 4.524722251717241267e-02
3.609999999999999876e+00 2.377771439061519831e-02
3.620000000000000107e+00 9.755461602474315222e-04
3.629999999999999893e+00 -2.234977573858579897e-02
3.640000000000000124e+00 -4.512761652094721132e-02
3.649999999999999911e+00 -6.629057102651281230e-02
3.660000000000000142e+00 -8.496863042379988740e-02
3.669999999999999929e+00 -1.002810211233666066e-01
3.680000000000000160e+00 -1.114753449422114101e-01
3.689999999999999947e+00 -1.182396894690820321e-01
3.700000000000000178e+00 -1.198959787803134391e-01
3.709999999999999964e+00 -1.168983405039237949e-01
3.720000000000000195e+00 -1.086784428087072957e-01
3.729999999999999982e+00 -9.636557615194354942e-02
3.740000000000000213e+00 -7.975482002261502501e-02
3.750000000000000000e+00 -6.020834100591308802e-02
3.760000000000000231e+00 -3.818203308712490862e-02
3.770000000000000018e+00 -1.487906577811515252e-02
3.780000000000000249e+00 8.790809106868770900e-03
3.790000000000000036e+00 3.174311556263322009e-02
3.800000000000000266e+00 5.305244863530739208e-02
3.810000000000000053e+00 7.167868764205007071e-02
3.820000000000000284e+00 8.710887611077658410e-02
3.830000000000000071e+00 9.829647915696747285e-02
3.839999999999999858e+00 1.054383563989663430e-01
3.850000000000000089e+00 1.075018077428280955e-01
3.859999999999999876e+00 1.053474740377766533e-01
