# [DEFAULT]
# # input and output specifications
# dataformat = QA
# outputtype = gr
# 
# # PDF calculation setup
# mode = xray
# wavelength = 
# composition = Cl4.0Cr1.0Na1.0
# bgscale = 1.0
# rpoly = 0.9
# qmaxinst = 28
# qmin = 0.0
# qmax = 22
# rmin = 0.0
# rmax = 30.0
# rstep = 0.01
# 
# # End of config --------------------------------------------------------------
# 
# #### start data
# #S 1
# #L r(Å)  G(Å$^$)
# 
0.000000000000000000e+00 0.000000000000000000e+00
1.000000000000000021e-02 -2.364584861149348315e-03
2.000000000000000042e-02 -4.878142510136614617e-03
2.999999999999999889e-02 -7.709723616404664213e-03
4.000000000000000083e-02 -1.092132661968420529e-02
5.000000000000000278e-02 -1.459194750487121002e-02
5.999999999999999778e-02 -1.867606653440883474e-02
7.000000000000000666e-02 -2.309129765673641199e-02
8.000000000000000167e-02 -2.766364061335896060e-02
8.999999999999999667e-02 -3.216838612983966006e-02
1.000000000000000056e-01 -3.627648962320135367e-02
1.100000000000000006e-01 -3.973654570328093161e-02
1.199999999999999956e-01 -4.204260432426689537e-02
1.300000000000000044e-01 -4.306553779201672399e-02
1.400000000000000133e-01 -4.221867414167188720e-02
1.499999999999999944e-01 -3.952956598404747113e-02
1.600000000000000033e-01 -3.458429321755680796e-02
1.700000000000000122e-01 -2.750895919536319734e-02
1.799999999999999933e-01 -1.824689812461785521e-02
1.900000000000000022e-01 -7.044014247624892297e-03
2.000000000000000111e-01 5.754144603106033096e-03
2.099999999999999922e-01 1.972215258521378689e-02
2.200000000000000011e-01 3.422876171415133867e-02
2.300000000000000100e-01 4.857526083471296052e-02
2.399999999999999911e-01 6.211491520358373292e-02
2.500000000000000000e-01 7.377726915756405157e-02
2.600000000000000089e-01 8.315199479892355916e-02
2.700000000000000178e-01 8.907672039975284006e-02
2.800000000000000266e-01 9.131406660659451002e-02
2.899999999999999800e-01 8.901778029449115837e-02
2.999999999999999889e-01 8.208050321234484914e-02
3.099999999999999978e-01 7.029801836459782793e-02
3.200000000000000067e-01 5.370915235131702714e-02
3.300000000000000155e-01 3.288520004080187908e-02
3.400000000000000244e-01 8.118286432043812784e-03
3.500000000000000333e-01 -1.937863140840075105e-02
3.599999999999999867e-01 -4.885982900141938590e-02
3.699999999999999956e-01 -7.886782474995936154e-02
3.800000000000000044e-01 -1.079877889645701750e-01
3.900000000000000133e-01 -1.349303101283566286e-01
4.000000000000000222e-01 -1.578884032313559449e-01
4.100000000000000311e-01 -1.757387435065064507e-01
4.199999999999999845e-01 -1.869084326361935555e-01
4.299999999999999933e-01 -1.903258684701129022e-01
4.400000000000000022e-01 -1.852882511898310824e-01
4.500000000000000111e-01 -1.707341661629007967e-01
4.600000000000000200e-01 -1.472562181568891349e-01
4.700000000000000289e-01 -1.139101561884739294e-01
4.799999999999999822e-01 -7.264393318638104335e-02
4.899999999999999911e-01 -2.292482859635752018e-02
5.000000000000000000e-01 3.248815011638710865e-02
5.100000000000000089e-01 9.277398329586178383e-02
5.200000000000000178e-01 1.553609581803717665e-01
5.300000000000000266e-01 2.182179171565843401e-01
5.400000000000000355e-01 2.788410257061190167e-01
5.500000000000000444e-01 3.348326441004609300e-01
5.600000000000000533e-01 3.835211534805672007e-01
5.700000000000000622e-01 4.231647712649676540e-01
5.799999999999999600e-01 4.507099953903039857e-01
5.899999999999999689e-01 4.660110293738640164e-01
5.999999999999999778e-01 4.655707292898808025e-01
6.099999999999999867e-01 4.511816723756258418e-01
6.199999999999999956e-01 4.198716754699539644e-01
6.300000000000000044e-01 3.744241190198746572e-01
6.400000000000000133e-01 3.138512654664055712e-01
6.500000000000000222e-01 2.409101051832412688e-01
6.600000000000000311e-01 1.568226934451104615e-01
6.700000000000000400e-01 6.437485691932313958e-02
6.800000000000000488e-01 -3.366112473253652509e-02
6.900000000000000577e-01 -1.341891671312565038e-01
7.000000000000000666e-01 -2.340251672882623368e-01
7.099999999999999645e-01 -3.293655390125643789e-01
7.199999999999999734e-01 -4.179774874641197235e-01
7.299999999999999822e-01 -4.949973854987017585e-01
7.399999999999999911e-01 -5.598861578990015353e-01
7.500000000000000000e-01 -6.081535443172333411e-01
7.600000000000000089e-01 -6.400065875347291655e-01
7.700000000000000178e-01 -6.527394433605494539e-01
7.800000000000000266e-01 -6.468564357332966530e-01
7.900000000000000355e-01 -6.221507098810504788e-01
8.000000000000000444e-01 -5.792711643133950927e-01
8.100000000000000533e-01 -5.205069001616208224e-01
8.200000000000000622e-01 -4.468022193232447092e-01
8.300000000000000711e-01 -3.622247491564381527e-01
8.399999999999999689e-01 -2.684215507998382599e-01
8.499999999999999778e-01 -1.699325966128108767e-01
8.599999999999999867e-01 -6.971912885366102208e-02
8.699999999999999956e-01 2.851840570071060427e-02
8.800000000000000044e-01 1.209801361540226716e-01
8.900000000000000133e-01 2.048915543096594127e-01
9.000000000000000222e-01 2.769672409151516246e-01
9.100000000000000311e-01 3.349281638947716466e-01
9.200000000000000400e-01 3.772679932857846419e-01
9.300000000000000488e-01 4.019166574119272806e-01
9.400000000000000577e-01 4.098594205381295708e-01
9.500000000000000666e-01 3.992186845439921195e-01
9.599999999999999645e-01 3.734551594864721213e-01
9.699999999999999734e-01 3.311764630206934790e-01
9.799999999999999822e-01 2.772159359017283276e-01
9.899999999999999911e-01 2.122511658748569285e-01
1.000000000000000000e+00 1.405075612836491905e-01
1.010000000000000009e+00 6.453462526603748195e-02
1.020000000000000018e+00 -1.200030823302647431e-02
1.030000000000000027e+00 -8.595313524451131393e-02
1.040000000000000036e+00 -1.539226968228281645e-01
1.050000000000000044e+00 -2.135659888273380713e-01
1.060000000000000053e+00 -2.614690632588173025e-01
1.070000000000000062e+00 -2.972196636710872086e-01
1.080000000000000071e+00 -3.172913820318051803e-01
1.090000000000000080e+00 -3.235337748934634661e-01
1.100000000000000089e+00 -3.132116772112221725e-01
1.110000000000000098e+00 -2.893588491826371012e-01
1.120000000000000107e+00 -2.513862841454916897e-01
1.130000000000000115e+00 -2.023231251858888247e-01
1.140000000000000124e+00 -1.437293632958589196e-01
1.150000000000000133e+00 -7.858784649255828869e-02
1.159999999999999920e+00 -9.712301996932515280e-03
1.169999999999999929e+00 5.977845077178846334e-02
1.179999999999999938e+00 1.270715904540163088e-01
1.189999999999999947e+00 1.886513350990571547e-01
1.199999999999999956e+00 2.429827229406767986e-01
1.209999999999999964e+00 2.859832105948802994e-01
1.219999999999999973e+00 3.179133870573045417e-01
1.229999999999999982e+00 3.355146987032602279e-01
1.239999999999999991e+00 3.398089857925103985e-01
1.250000000000000000e+00 3.294419708048603179e-01
1.260000000000000009e+00 3.057791987440520720e-01
1.270000000000000018e+00 2.696027359778532251e-01
1.280000000000000027e+00 2.225225814662172008e-01
1.290000000000000036e+00 1.670017100179400638e-01
1.300000000000000044e+00 1.050348412407018373e-01
1.310000000000000053e+00 3.978222242559122102e-02
1.320000000000000062e+00 -2.609412857707693600e-02
1.330000000000000071e+00 -8.990970057729726073e-02
1.340000000000000080e+00 -1.482877943264400700e-01
1.350000000000000089e+00 -1.996503273712172399e-01
1.360000000000000098e+00 -2.408628400291325244e-01
1.370000000000000107e+00 -2.710911737209594219e-01
1.380000000000000115e+00 -2.885128289510318633e-01
1.390000000000000124e+00 -2.927207255558735843e-01
1.400000000000000133e+00 -2.838066126278023793e-01
1.409999999999999920e+00 -2.616660550789536854e-01
1.419999999999999929e+00 -2.282922550869602718e-01
1.429999999999999938e+00 -1.839914797549166980e-01
1.439999999999999947e+00 -1.320448556859616374e-01
1.449999999999999956e+00 -7.346546216282344444e-02
1.459999999999999964e+00 -1.173542710629458564e-02
1.469999999999999973e+00 5.095837489470816939e-02
1.479999999999999982e+00 1.119191724447722164e-01
1.489999999999999991e+00 1.684831499687768630e-01
1.500000000000000000e+00 2.185350787668156325e-01
1.510000000000000009e+00 2.600380352173348175e-01
1.520000000000000018e+00 2.911966287771984296e-01
1.530000000000000027e+00 3.114531498855296343e-01
1.540000000000000036e+00 3.191902195752834293e-01
1.550000000000000044e+00 3.157008146160896755e-01
1.560000000000000053e+00 2.996026393748178474e-01
1.570000000000000062e+00 2.736986104571491607e-01
1.580000000000000071e+00 2.375234859755948336e-01
1.590000000000000080e+00 1.942334749142108630e-01
1.600000000000000089e+00 1.448563655916698112e-01
1.610000000000000098e+00 9.211026062387540903e-02
1.620000000000000107e+00 3.798708272079830833e-02
1.630000000000000115e+00 -1.512770691463827949e-02
1.640000000000000124e+00 -6.524871294035650138e-02
1.650000000000000133e+00 -1.101457714847470237e-01
1.660000000000000142e+00 -1.487442646415562675e-01
1.669999999999999929e+00 -1.788464136584349273e-01
1.679999999999999938e+00 -2.008816092742602699e-01
1.689999999999999947e+00 -2.127133330165419389e-01
1.699999999999999956e+00 -2.161123510630221789e-01
1.709999999999999964e+00 -2.100774715285688155e-01
1.719999999999999973e+00 -1.965856197331669886e-01
1.729999999999999982e+00 -1.761142871223203288e-01
1.739999999999999991e+00 -1.506134353806861392e-01
1.750000000000000000e+00 -1.216135474530070093e-01
1.760000000000000009e+00 -9.106126349464652159e-02
1.770000000000000018e+00 -6.078170915483520342e-02
1.780000000000000027e+00 -3.283487895554115799e-02
1.790000000000000036e+00 -8.503608377197741097e-03
1.800000000000000044e+00 9.937546469542205690e-03
1.810000000000000053e+00 2.231544657967676412e-02
1.820000000000000062e+00 2.648148873558218638e-02
1.830000000000000071e+00 2.317872342900155480e-02
1.840000000000000080e+00 1.124949448474374045e-02
1.850000000000000089e+00 -8.271164786851506814e-03
1.860000000000000098e+00 -3.522781015444653718e-02
1.870000000000000107e+00 -6.843029772493233742e-02
1.880000000000000115e+00 -1.066371140319179178e-01
1.890000000000000124e+00 -1.484893185390439574e-01
1.900000000000000133e+00 -1.922343777270567322e-01
1.910000000000000142e+00 -2.362331836780703631e-01
1.919999999999999929e+00 -2.789710856962827057e-01
1.929999999999999938e+00 -3.184086288479640037e-01
1.939999999999999947e+00 -3.537998587518008109e-01
1.949999999999999956e+00 -3.832007626951177137e-01
1.959999999999999964e+00 -4.064485669481250341e-01
1.969999999999999973e+00 -4.223513175449226109e-01
1.979999999999999982e+00 -4.310746200169804365e-01
1.989999999999999991e+00 -4.325291882501838825e-01
2.000000000000000000e+00 -4.270852760212410781e-01
2.010000000000000231e+00 -4.157130379348324412e-01
2.020000000000000018e+00 -3.989850190654685158e-01
2.030000000000000249e+00 -3.785371593358585751e-01
2.040000000000000036e+00 -3.552302867494112615e-01
2.049999999999999822e+00 -3.307500133494161165e-01
2.060000000000000053e+00 -3.063439207841702761e-01
2.069999999999999840e+00 -2.832135358609201292e-01
2.080000000000000071e+00 -2.626689580770883992e-01
2.089999999999999858e+00 -2.453888594692668623e-01
2.100000000000000089e+00 -2.322053937713644545e-01
2.109999999999999876e+00 -2.233934624082037634e-01
2.120000000000000107e+00 -2.189530949455741060e-01
2.129999999999999893e+00 -2.187974637948182366e-01
2.140000000000000124e+00 -2.220837195268741404e-01
2.149999999999999911e+00 -2.283017992441400135e-01
2.160000000000000142e+00 -2.361036761841848741e-01
2.169999999999999929e+00 -2.444164095825092642e-01
2.180000000000000160e+00 -2.519109874555940376e-01
2.189999999999999947e+00 -2.570093439840329674e-01
2.200000000000000178e+00 -2.586990492290922039e-01
2.209999999999999964e+00 -2.554302020121035355e-01
2.220000000000000195e+00 -2.464306258386389226e-01
2.229999999999999982e+00 -2.307998653844065273e-01
2.240000000000000213e+00 -2.079435209835305554e-01
2.250000000000000000e+00 -1.780236896017836634e-01
2.260000000000000231e+00 -1.406572023573016694e-01
2.270000000000000018e+00 -9.713365289004659286e-02
2.280000000000000249e+00 -4.744866969131719681e-02
2.290000000000000036e+00 6.354570621149318969e-03
2.300000000000000266e+00 6.348922488501954065e-02
2.310000000000000053e+00 1.218598032861113734e-01
2.319999999999999840e+00 1.798035644759618801e-01
2.330000000000000071e+00 2.354842472326162117e-01
2.339999999999999858e+00 2.869589215281789785e-01
2.350000000000000089e+00 3.325006455126343630e-01
2.359999999999999876e+00 3.706898278211912534e-01
2.370000000000000107e+00 3.997606727642092905e-01
2.379999999999999893e+00 4.194896555105147029e-01
2.390000000000000124e+00 4.280225581961162873e-01
2.399999999999999911e+00 4.266855254443904233e-01
2.410000000000000142e+00 4.136525154608604038e-01
2.419999999999999929e+00 3.914342589699053576e-01
2.430000000000000160e+00 3.593861396948370146e-01
2.439999999999999947e+00 3.199667128751554346e-01
2.450000000000000178e+00 2.740026130725214393e-01
2.459999999999999964e+00 2.237424659369290358e-01
2.470000000000000195e+00 1.709582888697510072e-01
2.479999999999999982e+00 1.178142866479252177e-01
2.490000000000000213e+00 6.621193113188619805e-02
2.500000000000000000e+00 1.841892636585870657e-02
2.510000000000000231e+00 -2.438194686791946703e-02
2.520000000000000018e+00 -5.967611926176998038e-02
2.530000000000000249e+00 -8.753971053502414279e-02
2.540000000000000036e+00 -1.055642605791291821e-01
2.550000000000000266e+00 -1.147946950811275513e-01
2.560000000000000053e+00 -1.139164306034813889e-01
2.569999999999999840e+00 -1.041845888649494123e-01
2.580000000000000071e+00 -8.573034277063323882e-02
2.589999999999999858e+00 -5.988834006319838227e-02
2.600000000000000089e+00 -2.799244200721067236e-02
2.609999999999999876e+00 8.507534631641196568e-03
2.620000000000000107e+00 4.767497103160621419e-02
2.629999999999999893e+00 8.780002195805787502e-02
2.640000000000000124e+00 1.271310753241046421e-01
2.649999999999999911e+00 1.635377452437666301e-01
2.660000000000000142e+00 1.960464934351930644e-01
2.669999999999999929e+00 2.225419768379105212e-01
2.680000000000000160e+00 2.427044139381829557e-01
2.689999999999999947e+00 2.551359543982091305e-01
2.700000000000000178e+00 2.598830264498426801e-01
2.709999999999999964e+00 2.566969754399631709e-01
2.720000000000000195e+00 2.458510998093398070e-01
2.729999999999999982e+00 2.282727100771871354e-01
2.740000000000000213e+00 2.044643207127931073e-01
2.750000000000000000e+00 1.761744394209213416e-01
2.760000000000000231e+00 1.442544166822168628e-01
2.770000000000000018e+00 1.106402364766549962e-01
2.780000000000000249e+00 7.671106627240602271e-02
2.790000000000000036e+00 4.398146716601615547e-02
2.800000000000000266e+00 1.408514534967841673e-02
2.810000000000000053e+00 -1.195984709004197302e-02
2.819999999999999840e+00 -3.287881554196399325e-02
2.830000000000000071e+00 -4.798574627561540129e-02
2.839999999999999858e+00 -5.686864864154237559e-02
2.850000000000000089e+00 -5.907574682835969176e-02
2.859999999999999876e+00 -5.524684149049693960e-02
2.870000000000000107e+00 -4.518061932130942870e-02
2.879999999999999893e+00 -3.039776294171130100e-02
2.890000000000000124e+00 -1.107619683058144039e-02
2.899999999999999911e+00 1.091560565255802508e-02
2.910000000000000142e+00 3.467516370779413076e-02
2.919999999999999929e+00 5.863492923969913784e-02
2.930000000000000160e+00 8.144577316617961082e-02
2.939999999999999947e+00 1.018365590347001665e-01
2.950000000000000178e+00 1.186156461304526122e-01
2.959999999999999964e+00 1.307058360910471617e-01
2.970000000000000195e+00 1.376078167524893703e-01
2.979999999999999982e+00 1.383807313270076778e-01
2.990000000000000213e+00 1.335097338604168404e-01
3.000000000000000000e+00 1.222343302202328758e-01
3.010000000000000231e+00 1.059267042804633296e-01
3.020000000000000018e+00 8.434698423671133094e-02
3.030000000000000249e+00 5.919078805183872194e-02
3.040000000000000036e+00 3.109224685484921966e-02
3.050000000000000266e+00 1.595302954714346473e-03
3.060000000000000053e+00 -2.807509768805054387e-02
3.070000000000000284e+00 -5.648298914422079237e-02
3.080000000000000071e+00 -8.239500971635321802e-02
3.089999999999999858e+00 -1.043912869343307515e-01
3.100000000000000089e+00 -1.218076404381649158e-01
3.109999999999999876e+00 -1.331782647983819345e-01
3.120000000000000107e+00 -1.388158443865432634e-01
3.129999999999999893e+00 -1.372421286354507941e-01
3.140000000000000124e+00 -1.296759085012897939e-01
3.149999999999999911e+00 -1.153500926241407404e-01
3.160000000000000142e+00 -9.565622616118302224e-02
3.169999999999999929e+00 -7.084956988473585515e-02
3.180000000000000160e+00 -4.229932327684035598e-02
3.189999999999999947e+00 -1.104207555891805609e-02
3.200000000000000178e+00 2.154635266391046605e-02
3.209999999999999964e+00 5.415521534557183464e-02
3.220000000000000195e+00 8.530614496995528317e-02
3.229999999999999982e+00 1.140063991866986925e-01
3.240000000000000213e+00 1.385845697025985257e-01
3.250000000000000000e+00 1.588120446958494469e-01
3.260000000000000231e+00 1.730085511294877643e-01
3.270000000000000018e+00 1.816371952259437650e-01
3.280000000000000249e+00 1.836731129665117035e-01
3.290000000000000036e+00 1.797937968113104690e-01
3.300000000000000266e+00 1.699321571877477899e-01
3.310000000000000053e+00 1.548707035853932601e-01
3.320000000000000284e+00 1.354011018412354383e-01
3.330000000000000071e+00 1.124117828453961021e-01
3.339999999999999858e+00 8.718494471632205756e-02
3.350000000000000089e+00 6.079494527948071242e-02
3.359999999999999876e+00 3.448746883569903110e-02
3.370000000000000107e+00 9.621014578340553181e-03
3.379999999999999893e+00 -1.303376356364578138e-02
3.390000000000000124e+00 -3.208146075546904064e-02
3.399999999999999911e+00 -4.722223337741723176e-02
3.410000000000000142e+00 -5.750062881551269017e-02
3.419999999999999929e+00 -6.290358236005355597e-02
3.430000000000000160e+00 -6.323365070607323002e-02
3.439999999999999947e+00 -5.867166560031310263e-02
3.450000000000000178e+00 -4.981422000502975372e-02
3.459999999999999964e+00 -3.703573431983052389e-02
3.470000000000000195e+00 -2.148928061252900965e-02
3.479999999999999982e+00 -3.820240257581732773e-03
3.490000000000000213e+00 1.469862880310547452e-02
3.500000000000000000e+00 3.304937220598610365e-02
3.510000000000000231e+00 5.025135385027583446e-02
3.520000000000000018e+00 6.513691003225925702e-02
3.530000000000000249e+00 7.706396625901466846e-02
3.540000000000000036e+00 8.515711348843753303e-02
3.550000000000000266e+00 8.901159852603034162e-02
3.560000000000000053e+00 8.839502736110609049e-02
3.570000000000000284e+00 8.308849974917824344e-02
3.580000000000000071e+00 7.361860362365270360e-02
3.589999999999999858e+00 5.998411752533053254e-02
3.600000000000000089e+00 4.331796359615902592e-02
3.609999999999999876e+00 2.394879424141731564e-02
3.620000000000000107e+00 3.217802340053354908e-03
3.629999999999999893e+00 -1.801859466245511049e-02
3.640000000000000124e+00 -3.863689374522689957e-02
3.649999999999999911e+00 -5.750233404184536268e-02
3.660000000000000142e+00 -7.369235492564453482e-02
3.669999999999999929e+00 -8.626670994811728999e-02
3.680000000000000160e+00 -9.441999634028021282e-02
3.689999999999999947e+00 -9.781666381197212656e-02
3.700000000000000178e+00 -9.572543084892685961e-02
3.709999999999999964e+00 -8.863031410039702573e-02
3.720000000000000195e+00 -7.591436613669207134e-02
3.729999999999999982e+00 -5.878782167957511545e-02
3.740000000000000213e+00 -3.702304116252940619e-02
3.750000000000000000e+00 -1.208386728782439093e-02
3.760000000000000231e+00 1.554388554327165196e-02
3.770000000000000018e+00 4.456383027017810083e-02
3.780000000000000249e+00 7.399582828586065419e-02
3.790000000000000036e+00 1.026666693313582623e-01
3.800000000000000266e+00 1.295723677742644242e-01
3.810000000000000053e+00 1.535809077583180082e-01
3.820000000000000284e+00 1.741272971826925975e-01
3.830000000000000071e+00 1.900625451730867943e-01
3.839999999999999858e+00 2.015861152854164784e-01
3.850000000000000089e+00 2.075487277661405838e-01
3.859999999999999876e+00 2.088690596634385221e-01
