# [DEFAULT]
# # input and output specifications
# dataformat = QA
# outputtype = gr
# 
# # PDF calculation setup
# mode = xray
# wavelength = 
# composition = Cl4.0Cr1.0Na1.0
# bgscale = 1.0
# rpoly = 0.9
# qmaxinst = 28
# qmin = 0.0
# qmax = 22
# rmin = 0.0
# rmax = 30.0
# rstep = 0.01
# 
# # End of config --------------------------------------------------------------
# 
# #### start data
# #S 1
# #L r(Å)  G(Å$^$)
# 
0.000000000000000000e+00 0.000000000000000000e+00
1.000000000000000021e-02 -3.933467485308893286e-03
2.000000000000000042e-02 -7.927642565955470358e-03
2.999999999999999889e-02 -1.204432722568558878e-02
4.000000000000000083e-02 -1.629061698531860183e-02
5.000000000000000278e-02 -2.065980742349664626e-02
5.999999999999999778e-02 -2.507746226967956168e-02
7.000000000000000666e-02 -2.943253921443219831e-02
8.000000000000000167e-02 -3.354379422724845100e-02
8.999999999999999667e-02 -3.722781421527501799e-02
1.000000000000000056e-01 -4.017220646648348575e-02
1.100000000000000006e-01 -4.222269404089368239e-02
1.199999999999999956e-01 -4.292241789722318901e-02
1.300000000000000044e-01 -4.225786043021579480e-02
1.400000000000000133e-01 -3.973435893505259525e-02
1.499999999999999944e-01 -3.547429265919039426e-02
1.600000000000000033e-01 -2.917449435786944115e-02
1.700000000000000122e-01 -2.102926642906550320e-02
1.799999999999999933e-01 -1.106566729755493333e-02
1.900000000000000022e-01 4.236293510391428690e-04
2.000000000000000111e-01 1.307399145165827510e-02
2.099999999999999922e-01 2.643396593074861037e-02
2.200000000000000011e-01 3.993144111468853452e-02
2.300000000000000100e-01 5.286968991526886513e-02
2.399999999999999911e-01 6.472300814877901542e-02
2.500000000000000000e-01 7.446555317884670511e-02
2.600000000000000089e-01 8.182671562753893180e-02
2.700000000000000178e-01 8.574794487964854106e-02
2.800000000000000266e-01 8.610776192125310646e-02
2.899999999999999800e-01 8.218584998657788021e-02
2.999999999999999889e-01 7.397028104852665376e-02
3.099999999999999978e-01 6.134777599079243443e-02
3.200000000000000067e-01 4.443548800054615555e-02
3.300000000000000155e-01 2.381513009926051333e-02
3.400000000000000244e-01 -1.639790076591223292e-04
3.500000000000000333e-01 -2.637671758989100154e-02
3.599999999999999867e-01 -5.405710710704862698e-02
3.699999999999999956e-01 -8.190986124595034390e-02
3.800000000000000044e-01 -1.085779876935091398e-01
3.900000000000000133e-01 -1.329492401669984392e-01
4.000000000000000222e-01 -1.533596254524798308e-01
4.100000000000000311e-01 -1.688517219818777282e-01
4.199999999999999845e-01 -1.780261935730452216e-01
4.299999999999999933e-01 -1.799735573345121187e-01
4.400000000000000022e-01 -1.741178032391866581e-01
4.500000000000000111e-01 -1.595616034177188836e-01
4.600000000000000200e-01 -1.369093450374566090e-01
4.700000000000000289e-01 -1.053763783731185427e-01
4.799999999999999822e-01 -6.677126241203361345e-02
4.899999999999999911e-01 -2.068975501432167644e-02
5.000000000000000000e-01 3.036426448062431657e-02
5.100000000000000089e-01 8.558988183124235927e-02
5.200000000000000178e-01 1.426771748533194606e-01
5.300000000000000266e-01 1.997734473770819141e-01
5.400000000000000355e-01 2.546488126861571888e-01
5.500000000000000444e-01 3.051669295029256213e-01
5.600000000000000533e-01 3.489654636212710659e-01
5.700000000000000622e-01 3.845353802128380627e-01
5.799999999999999600e-01 4.091947579384895284e-01
5.899999999999999689e-01 4.228826857056873778e-01
5.999999999999999778e-01 4.225511861921877887e-01
6.099999999999999867e-01 4.098651126725380012e-01
6.199999999999999956e-01 3.822756848774564453e-01
6.300000000000000044e-01 3.423116489169334975e-01
6.400000000000000133e-01 2.891961371700751404e-01
6.500000000000000222e-01 2.254224306956596757e-01
6.600000000000000311e-01 1.521504097871069494e-01
6.700000000000000400e-01 7.189269727654469533e-02
6.800000000000000488e-01 -1.286951452367499776e-02
6.900000000000000577e-01 -9.935370098363820179e-02
7.000000000000000666e-01 -1.847829269748372250e-01
7.099999999999999645e-01 -2.657601449781796799e-01
7.199999999999999734e-01 -3.404167592510541351e-01
7.299999999999999822e-01 -4.044464231764888229e-01
7.399999999999999911e-01 -4.575155090837762506e-01
7.500000000000000000e-01 -4.957187116475518240e-01
7.600000000000000089e-01 -5.193738450860568845e-01
7.700000000000000178e-01 -5.262128331975366446e-01
7.800000000000000266e-01 -5.168175199389243302e-01
7.900000000000000355e-01 -4.911429943062012859e-01
8.000000000000000444e-01 -4.499166391058943004e-01
8.100000000000000533e-01 -3.952590324240694009e-01
8.200000000000000622e-01 -3.281926514376561910e-01
8.300000000000000711e-01 -2.523175500594910803e-01
8.399999999999999689e-01 -1.693205218108931043e-01
8.499999999999999778e-01 -8.310696723874241854e-02
8.599999999999999867e-01 3.486190207471422109e-03
8.699999999999999956e-01 8.734853803950617945e-02
8.800000000000000044e-01 1.650094332700817734e-01
8.900000000000000133e-01 2.341612939852577846e-01
9.000000000000000222e-01 2.919217495916097138e-01
9.100000000000000311e-01 3.364058475383672198e-01
9.200000000000000400e-01 3.664144595747753641e-01
9.300000000000000488e-01 3.802462800350840944e-01
9.400000000000000577e-01 3.789655788794497604e-01
9.500000000000000666e-01 3.610642633797320755e-01
9.599999999999999645e-01 3.297887570728135209e-01
9.699999999999999734e-01 2.841099614415603103e-01
9.799999999999999822e-01 2.284274995562009247e-01
9.899999999999999911e-01 1.635630754730074132e-01
1.000000000000000000e+00 9.332783938880079289e-02
1.010000000000000009e+00 2.015417130618028796e-02
1.020000000000000018e+00 -5.266274111183555373e-02
1.030000000000000027e+00 -1.222638316932082025e-01
1.040000000000000036e+00 -1.855939992788951665e-01
1.050000000000000044e+00 -2.406283478739084658e-01
1.060000000000000053e+00 -2.843019636059810895e-01
1.070000000000000062e+00 -3.164167861275350990e-01
1.080000000000000071e+00 -3.338222446751308303e-01
1.090000000000000080e+00 -3.383934937221523831e-01
1.100000000000000089e+00 -3.277430163662266027e-01
1.110000000000000098e+00 -3.047842571660371869e-01
1.120000000000000107e+00 -2.691138308757530795e-01
1.130000000000000115e+00 -2.235969933199583315e-01
1.140000000000000124e+00 -1.697699587803651600e-01
1.150000000000000133e+00 -1.104314158754327313e-01
1.159999999999999920e+00 -4.819869721277904306e-02
1.169999999999999929e+00 1.401647355615349977e-02
1.179999999999999938e+00 7.368133828487488657e-02
1.189999999999999947e+00 1.275300138762004709e-01
1.199999999999999956e+00 1.742761481955799885e-01
1.209999999999999964e+00 2.101530741664323632e-01
1.219999999999999973e+00 2.355561800381195947e-01
1.229999999999999982e+00 2.475371395744303260e-01
1.239999999999999991e+00 2.471663994135827325e-01
1.250000000000000000e+00 2.332941592090342076e-01
1.260000000000000009e+00 2.072881813217183344e-01
1.270000000000000018e+00 1.699692105469122472e-01
1.280000000000000027e+00 1.229245249510278470e-01
1.290000000000000036e+00 6.848547275995731098e-02
1.300000000000000044e+00 8.600424876497529680e-03
1.310000000000000053e+00 -5.382460444276948586e-02
1.320000000000000062e+00 -1.162132879298561350e-01
1.330000000000000071e+00 -1.761700717856717058e-01
1.340000000000000080e+00 -2.304759903970905466e-01
1.350000000000000089e+00 -2.777852965942633201e-01
1.360000000000000098e+00 -3.151670784755304933e-01
1.370000000000000107e+00 -3.419477700046810176e-01
1.380000000000000115e+00 -3.564753093026391539e-01
1.390000000000000124e+00 -3.584560434671978935e-01
1.400000000000000133e+00 -3.480510016241616933e-01
1.409999999999999920e+00 -3.252392689324972164e-01
1.419999999999999929e+00 -2.919530492206614536e-01
1.429999999999999938e+00 -2.485557467783579000e-01
1.439999999999999947e+00 -1.981521762083245930e-01
1.449999999999999956e+00 -1.417755556318694710e-01
1.459999999999999964e+00 -8.268029752360947504e-02
1.469999999999999973e+00 -2.298332442201698328e-02
1.479999999999999982e+00 3.480846419468234393e-02
1.489999999999999991e+00 8.816464472774106220e-02
1.500000000000000000e+00 1.351223892549258121e-01
1.510000000000000009e+00 1.737749687726836689e-01
1.520000000000000018e+00 2.024533395261299551e-01
1.530000000000000027e+00 2.206677711009276677e-01
1.540000000000000036e+00 2.269102513410725663e-01
1.550000000000000044e+00 2.224458724815857602e-01
1.560000000000000053e+00 2.059853440731051200e-01
1.570000000000000062e+00 1.802152765098156695e-01
1.580000000000000071e+00 1.447154214599139233e-01
1.590000000000000080e+00 1.024943996215145481e-01
1.600000000000000089e+00 5.454568916205024265e-02
1.610000000000000098e+00 3.455968569856738420e-03
1.620000000000000107e+00 -4.887127947951318274e-02
1.630000000000000115e+00 -1.001637993046729513e-01
1.640000000000000124e+00 -1.485291316991988464e-01
1.650000000000000133e+00 -1.918348877737582336e-01
1.660000000000000142e+00 -2.290580589953377655e-01
1.669999999999999929e+00 -2.580840724576738410e-01
1.679999999999999938e+00 -2.793253255038006810e-01
1.689999999999999947e+00 -2.907079008121286057e-01
1.699999999999999956e+00 -2.939253006145404745e-01
1.709999999999999964e+00 -2.879793051358778833e-01
1.719999999999999973e+00 -2.747539005738313111e-01
1.729999999999999982e+00 -2.546665858748627942e-01
1.739999999999999991e+00 -2.295684926543961890e-01
1.750000000000000000e+00 -2.008984710704110332e-01
1.760000000000000009e+00 -1.704977385014890268e-01
1.770000000000000018e+00 -1.401126813451171738e-01
1.780000000000000027e+00 -1.116876886012905939e-01
1.790000000000000036e+00 -8.648194225280536607e-02
1.800000000000000044e+00 -6.664325432501898294e-02
1.810000000000000053e+00 -5.239481602799448551e-02
1.820000000000000062e+00 -4.577613119796997837e-02
1.830000000000000071e+00 -4.613701349264667795e-02
1.840000000000000080e+00 -5.459328966369059177e-02
1.850000000000000089e+00 -7.020065044786087671e-02
1.860000000000000098e+00 -9.283278812949420644e-02
1.870000000000000107e+00 -1.213803442068859678e-01
1.880000000000000115e+00 -1.546742715880243257e-01
1.890000000000000124e+00 -1.914235708931256719e-01
1.900000000000000133e+00 -2.299535570492955150e-01
1.910000000000000142e+00 -2.686775971454208878e-01
1.919999999999999929e+00 -3.061303242067886510e-01
1.929999999999999938e+00 -3.403020205259932873e-01
1.939999999999999947e+00 -3.704514407890535099e-01
1.949999999999999956e+00 -3.946251625869450219e-01
1.959999999999999964e+00 -4.126259968972787462e-01
1.969999999999999973e+00 -4.232075424141259479e-01
1.979999999999999982e+00 -4.264691018797113209e-01
1.989999999999999991e+00 -4.222408602713934034e-01
2.000000000000000000e+00 -4.107976239676050523e-01
2.010000000000000231e+00 -3.930428052458407873e-01
2.020000000000000018e+00 -3.694273445201792239e-01
2.030000000000000249e+00 -3.415811258403418371e-01
2.040000000000000036e+00 -3.102277210237189831e-01
2.049999999999999822e+00 -2.771343733499536111e-01
2.060000000000000053e+00 -2.434471361376668308e-01
2.069999999999999840e+00 -2.105101079345036152e-01
2.080000000000000071e+00 -1.796431748145115581e-01
2.089999999999999858e+00 -1.516917518185827429e-01
2.100000000000000089e+00 -1.276195615325019239e-01
2.109999999999999876e+00 -1.079074502634687627e-01
2.120000000000000107e+00 -9.276257700346546287e-02
2.129999999999999893e+00 -8.237106201264089711e-02
2.140000000000000124e+00 -7.608784708438860733e-02
2.149999999999999911e+00 -7.377611514155218986e-02
2.160000000000000142e+00 -7.416956326932946930e-02
2.169999999999999929e+00 -7.669522354838807787e-02
2.180000000000000160e+00 -7.994482198329268263e-02
2.189999999999999947e+00 -8.279726863202352405e-02
2.200000000000000178e+00 -8.412458753210541595e-02
2.209999999999999964e+00 -8.264047249187403410e-02
2.220000000000000195e+00 -7.746206768254020048e-02
2.229999999999999982e+00 -6.769212557507403583e-02
2.240000000000000213e+00 -5.263038261263404405e-02
2.250000000000000000e+00 -3.218466731608125853e-02
2.260000000000000231e+00 -5.840878906610482736e-03
2.270000000000000018e+00 2.554989383940756142e-02
2.280000000000000249e+00 6.220429082377502278e-02
2.290000000000000036e+00 1.025674935345294719e-01
2.300000000000000266e+00 1.462185231881503733e-01
2.310000000000000053e+00 1.914670903235831390e-01
2.319999999999999840e+00 2.371203797984072215e-01
2.330000000000000071e+00 2.816605890282181668e-01
2.339999999999999858e+00 3.235652456487931872e-01
2.350000000000000089e+00 3.613922862977140271e-01
2.359999999999999876e+00 3.939389504833759048e-01
2.370000000000000107e+00 4.197275648008857996e-01
2.379999999999999893e+00 4.384466102947321420e-01
2.390000000000000124e+00 4.485375248594838382e-01
2.399999999999999911e+00 4.509112304610463084e-01
2.410000000000000142e+00 4.440085831118391058e-01
2.419999999999999929e+00 4.297165592193101236e-01
2.430000000000000160e+00 4.073973650687829351e-01
2.439999999999999947e+00 3.789389999396346465e-01
2.450000000000000178e+00 3.448891433070433998e-01
2.459999999999999964e+00 3.069882908968885049e-01
2.470000000000000195e+00 2.665816209657129177e-01
2.479999999999999982e+00 2.253410854030350463e-01
2.490000000000000213e+00 1.847749784844824605e-01
2.500000000000000000e+00 1.466202241785893867e-01
2.510000000000000231e+00 1.118747350800111257e-01
2.520000000000000018e+00 8.244363585710313969e-02
2.530000000000000249e+00 5.836989935097397497e-02
2.540000000000000036e+00 4.146323586319486387e-02
2.550000000000000266e+00 3.099705117268871518e-02
2.560000000000000053e+00 2.794273914296436026e-02
2.569999999999999840e+00 3.136389008106076071e-02
2.580000000000000071e+00 4.112409496562631495e-02
2.589999999999999858e+00 5.618234152521831004e-02
2.600000000000000089e+00 7.548851668790602931e-02
2.609999999999999876e+00 9.787431557349415834e-02
2.620000000000000107e+00 1.218562513069002679e-01
2.629999999999999893e+00 1.460341041713449639e-01
2.640000000000000124e+00 1.691188269587074189e-01
2.649999999999999911e+00 1.893674671433991374e-01
2.660000000000000142e+00 2.061398749703414746e-01
2.669999999999999929e+00 2.177533749807508689e-01
2.680000000000000160e+00 2.240750280711356068e-01
2.689999999999999947e+00 2.240566150539287926e-01
2.700000000000000178e+00 2.178517140051789147e-01
2.709999999999999964e+00 2.053691489233457901e-01
2.720000000000000195e+00 1.869572529940987660e-01
2.729999999999999982e+00 1.634655088213777807e-01
2.740000000000000213e+00 1.354604544506159414e-01
2.750000000000000000e+00 1.044025282265248072e-01
2.760000000000000231e+00 7.119164084730919551e-02
2.770000000000000018e+00 3.735788153992981864e-02
2.780000000000000249e+00 4.255797471989409761e-03
2.790000000000000036e+00 -2.697661047556437416e-02
2.800000000000000266e+00 -5.483992242298785930e-02
2.810000000000000053e+00 -7.858129266907408483e-02
2.819999999999999840e+00 -9.709738491192901333e-02
2.830000000000000071e+00 -1.098771414645045852e-01
2.839999999999999858e+00 -1.166286896131006057e-01
2.850000000000000089e+00 -1.170037505559413660e-01
2.859999999999999876e+00 -1.116605467711360572e-01
2.870000000000000107e+00 -1.004365966622380035e-01
2.879999999999999893e+00 -8.476820829526740542e-02
2.890000000000000124e+00 -6.479948269113502968e-02
2.899999999999999911e+00 -4.225713738467938574e-02
2.910000000000000142e+00 -1.792056364127676826e-02
2.919999999999999929e+00 6.784908335374054134e-03
2.930000000000000160e+00 3.068190230876509036e-02
2.939999999999999947e+00 5.263409810761336682e-02
2.950000000000000178e+00 7.159621251548785315e-02
2.959999999999999964e+00 8.662114376931551174e-02
2.970000000000000195e+00 9.726084883728289276e-02
2.979999999999999982e+00 1.026984484973781780e-01
2.990000000000000213e+00 1.033342240259974981e-01
3.000000000000000000e+00 9.851110212010839862e-02
3.010000000000000231e+00 8.939182282754418174e-02
3.020000000000000018e+00 7.576229232169974515e-02
3.030000000000000249e+00 5.906187755571178088e-02
3.040000000000000036e+00 3.981603588321956655e-02
3.050000000000000266e+00 1.932885530537005805e-02
3.060000000000000053e+00 -1.378408882999643259e-03
3.070000000000000284e+00 -2.110633137505361565e-02
3.080000000000000071e+00 -3.883198462303878024e-02
3.089999999999999858e+00 -5.338980238374812365e-02
3.100000000000000089e+00 -6.423850279293510934e-02
3.109999999999999876e+00 -7.020203922198542390e-02
3.120000000000000107e+00 -7.155266899429919836e-02
3.129999999999999893e+00 -6.714083311696605882e-02
3.140000000000000124e+00 -5.798542473437161282e-02
3.149999999999999911e+00 -4.354678246332321923e-02
3.160000000000000142e+00 -2.499274200592417963e-02
3.169999999999999929e+00 -2.624288130130077515e-03
3.180000000000000160e+00 2.239729271208959482e-02
3.189999999999999947e+00 4.915713403984110774e-02
3.200000000000000178e+00 7.647427118920946398e-02
3.209999999999999964e+00 1.032632498348184796e-01
3.220000000000000195e+00 1.282459665937656923e-01
3.229999999999999982e+00 1.506693267608439635e-01
3.240000000000000213e+00 1.690922071296423468e-01
3.250000000000000000e+00 1.834538173553502682e-01
3.260000000000000231e+00 1.923357401921854115e-01
3.270000000000000018e+00 1.962672654745654111e-01
3.280000000000000249e+00 1.944410120427411404e-01
3.290000000000000036e+00 1.875465864245253189e-01
3.300000000000000266e+00 1.756236441070938570e-01
3.310000000000000053e+00 1.594417235146705358e-01
3.320000000000000284e+00 1.397644924165219182e-01
3.330000000000000071e+00 1.174556055308968172e-01
3.339999999999999858e+00 9.365163301344495150e-02
3.350000000000000089e+00 6.938805895408282909e-02
3.359999999999999876e+00 4.569737491094483239e-02
3.370000000000000107e+00 2.387225188394212494e-02
3.379999999999999893e+00 4.473016097023947701e-03
3.390000000000000124e+00 -1.122148003598423885e-02
3.399999999999999911e+00 -2.306013927494003982e-02
3.410000000000000142e+00 -3.021830962850509048e-02
3.419999999999999929e+00 -3.278227430514275842e-02
3.430000000000000160e+00 -3.064556960385994219e-02
3.439999999999999947e+00 -2.405767345319289457e-02
3.450000000000000178e+00 -1.363250393595859949e-02
3.459999999999999964e+00 2.050160572794131227e-04
3.470000000000000195e+00 1.636361448335996172e-02
3.479999999999999982e+00 3.416102567371316623e-02
3.490000000000000213e+00 5.244089771145319517e-02
3.500000000000000000e+00 7.017528969474652600e-02
3.510000000000000231e+00 8.650330098946286406e-02
3.520000000000000018e+00 1.002869696117387327e-01
3.530000000000000249e+00 1.109687490902964979e-01
3.540000000000000036e+00 1.177173499158587905e-01
3.550000000000000266e+00 1.201764107292788569e-01
3.560000000000000053e+00 1.181408020401937542e-01
3.570000000000000284e+00 1.114032239727366785e-01
3.580000000000000071e+00 1.004853754714992164e-01
3.589999999999999858e+00 8.535651333629373783e-02
3.600000000000000089e+00 6.711908232705000865e-02
3.609999999999999876e+00 4.602224362522315537e-02
3.620000000000000107e+00 2.337025194376558812e-02
3.629999999999999893e+00 -9.614855659114199260e-05
3.640000000000000124e+00 -2.329289882947659096e-02
3.649999999999999911e+00 -4.520099177818329150e-02
3.660000000000000142e+00 -6.494320894481256379e-02
3.669999999999999929e+00 -8.165435437701616672e-02
3.680000000000000160e+00 -9.458174589575935043e-02
3.689999999999999947e+00 -1.033910814685673890e-01
3.700000000000000178e+00 -1.074080242044998384e-01
3.709999999999999964e+00 -1.070294991242008859e-01
3.720000000000000195e+00 -1.016880847138372651e-01
3.729999999999999982e+00 -9.243483201049149112e-02
3.740000000000000213e+00 -7.904785206195330538e-02
3.750000000000000000e+00 -6.281343491711317839e-02
3.760000000000000231e+00 -4.414341744036562321e-02
3.770000000000000018e+00 -2.417962321451478172e-02
3.780000000000000249e+00 -3.775585697230804047e-03
3.790000000000000036e+00 1.603816788608032617e-02
3.800000000000000266e+00 3.438195056272513178e-02
3.810000000000000053e+00 5.026893136618973412e-02
3.820000000000000284e+00 6.320178114883963361e-02
3.830000000000000071e+00 7.219045869667813087e-02
3.839999999999999858e+00 7.740548010816022950e-02
3.850000000000000089e+00 7.787300706480126955e-02
3.859999999999999876e+00 7.439231740459832654e-02
