# [DEFAULT]
# # input and output specifications
# dataformat = QA
# outputtype = gr
# 
# # PDF calculation setup
# mode = xray
# wavelength = 
# composition = Cl4.0Cr1.0Na1.0
# bgscale = 1.0
# rpoly = 0.9
# qmaxinst = 28
# qmin = 0.0
# qmax = 22
# rmin = 0.0
# rmax = 30.0
# rstep = 0.01
# 
# # End of config --------------------------------------------------------------
# 
# #### start data
# #S 1
# #L r(Å)  G(Å$^$)
# 
0.000000000000000000e+00 0.000000000000000000e+00
1.000000000000000021e-02 -3.465347835693560058e-03
2.000000000000000042e-02 -7.015869280593716763e-03
2.999999999999999889e-02 -1.074320724086194265e-02
4.000000000000000083e-02 -1.466996323316750381e-02
5.000000000000000278e-02 -1.881379830298256228e-02
5.999999999999999778e-02 -2.310915496179001549e-02
7.000000000000000666e-02 -2.745411160306754014e-02
8.000000000000000167e-02 -3.167106864475616179e-02
8.999999999999999667e-02 -3.556646902029993174e-02
1.000000000000000056e-01 -3.882579182583016653e-02
1.100000000000000006e-01 -4.126837984217367195e-02
1.199999999999999956e-01 -4.242695749339137762e-02
1.300000000000000044e-01 -4.225498153103570548e-02
1.400000000000000133e-01 -4.023498832903636691e-02
1.499999999999999944e-01 -3.646084211296812816e-02
1.600000000000000033e-01 -3.059915083214089296e-02
1.700000000000000122e-01 -2.282232607038638117e-02
1.799999999999999933e-01 -1.313195027442279686e-02
1.900000000000000022e-01 -1.803716822783318387e-03
2.000000000000000111e-01 1.080720852910666170e-02
2.099999999999999922e-01 2.426201379912331507e-02
2.200000000000000011e-01 3.797632661181150893e-02
2.300000000000000100e-01 5.125995230921583795e-02
2.399999999999999911e-01 6.355515450207790962e-02
2.500000000000000000e-01 7.383217044543259611e-02
2.600000000000000089e-01 8.177928810436528584e-02
2.700000000000000178e-01 8.631468259530605813e-02
2.800000000000000266e-01 8.728039082905031387e-02
2.899999999999999800e-01 8.392078510534789482e-02
2.999999999999999889e-01 7.619082650062970752e-02
3.099999999999999978e-01 6.394534943542709571e-02
3.200000000000000067e-01 4.726977594813290551e-02
3.300000000000000155e-01 2.673224573281922367e-02
3.400000000000000244e-01 2.651201589204474005e-03
3.500000000000000333e-01 -2.383377044226959313e-02
3.599999999999999867e-01 -5.198399195780917248e-02
3.699999999999999956e-01 -8.046321181018226132e-02
3.800000000000000044e-01 -1.079235867803730875e-01
3.900000000000000133e-01 -1.332019259016604396e-01
4.000000000000000222e-01 -1.546134866595476887e-01
4.100000000000000311e-01 -1.711506441722026872e-01
4.199999999999999845e-01 -1.813711957492462057e-01
4.299999999999999933e-01 -1.843134668875459348e-01
4.400000000000000022e-01 -1.793550173595610808e-01
4.500000000000000111e-01 -1.655399048006499507e-01
4.600000000000000200e-01 -1.434438976280391076e-01
4.700000000000000289e-01 -1.122138029444367663e-01
4.799999999999999822e-01 -7.366593073103684663e-02
4.899999999999999911e-01 -2.731773471867780453e-02
5.000000000000000000e-01 2.428302523778764696e-02
5.100000000000000089e-01 8.038579602030548887e-02
5.200000000000000178e-01 1.386323779645318166e-01
5.300000000000000266e-01 1.971748641336297514e-01
5.400000000000000355e-01 2.537339349170214531e-01
5.500000000000000444e-01 3.061362384998983499e-01
5.600000000000000533e-01 3.519660655228902257e-01
5.700000000000000622e-01 3.896518098865251467e-01
5.799999999999999600e-01 4.164472461303377893e-01
5.899999999999999689e-01 4.322283492112872771e-01
5.999999999999999778e-01 4.338632689079970906e-01
6.099999999999999867e-01 4.229773721742791093e-01
6.199999999999999956e-01 3.969235426011213375e-01
6.300000000000000044e-01 3.582178217579297663e-01
6.400000000000000133e-01 3.060013336586233090e-01
6.500000000000000222e-01 2.427645591904588618e-01
6.600000000000000311e-01 1.696268148973402168e-01
6.700000000000000400e-01 8.910088500043542026e-02
6.800000000000000488e-01 3.680080267788744808e-03
6.900000000000000577e-01 -8.385130959102032877e-02
7.000000000000000666e-01 -1.706546310480689943e-01
7.099999999999999645e-01 -2.533246812248048929e-01
7.199999999999999734e-01 -3.298984478758252292e-01
7.299999999999999822e-01 -3.960453935232930989e-01
7.399999999999999911e-01 -4.513334548610223318e-01
7.500000000000000000e-01 -4.918008697538063245e-01
7.600000000000000089e-01 -5.176895626047530730e-01
7.700000000000000178e-01 -5.266597862698654264e-01
7.800000000000000266e-01 -5.192323500681739201e-01
7.900000000000000355e-01 -4.953044109690057373e-01
8.000000000000000444e-01 -4.555487093952279021e-01
8.100000000000000533e-01 -4.020651350668026924e-01
8.200000000000000622e-01 -3.358226996235498807e-01
8.300000000000000711e-01 -2.604504580590835672e-01
8.399999999999999689e-01 -1.775831449344118240e-01
8.499999999999999778e-01 -9.119848468227663429e-02
8.599999999999999867e-01 -4.103639641196470123e-03
8.699999999999999956e-01 8.050683879683273592e-02
8.800000000000000044e-01 1.591489683675142153e-01
8.900000000000000133e-01 2.294417523600422448e-01
9.000000000000000222e-01 2.884560067565334895e-01
9.100000000000000311e-01 3.342414859660553517e-01
9.200000000000000400e-01 3.655423915583871919e-01
9.300000000000000488e-01 3.805948294013107858e-01
9.400000000000000577e-01 3.804213527516457916e-01
9.500000000000000666e-01 3.634489818626481239e-01
9.599999999999999645e-01 3.329171038704876184e-01
9.699999999999999734e-01 2.877277229590489149e-01
9.799999999999999822e-01 2.323093842642588447e-01
9.899999999999999911e-01 1.674395125695812836e-01
1.000000000000000000e+00 9.696699931037769393e-02
1.010000000000000009e+00 2.331853692057519328e-02
1.020000000000000018e+00 -5.017091054410292156e-02
1.030000000000000027e+00 -1.206138490459497808e-01
1.040000000000000036e+00 -1.849140885965333825e-01
1.050000000000000044e+00 -2.409990413876522131e-01
1.060000000000000053e+00 -2.857586313900123409e-01
1.070000000000000062e+00 -3.189482022998791910e-01
1.080000000000000071e+00 -3.373641683894292864e-01
1.090000000000000080e+00 -3.428542725252757273e-01
1.100000000000000089e+00 -3.329744872467950145e-01
1.110000000000000098e+00 -3.106331346784164116e-01
1.120000000000000107e+00 -2.753861297335224445e-01
1.130000000000000115e+00 -2.301051038794839909e-01
1.140000000000000124e+00 -1.763146166934544401e-01
1.150000000000000133e+00 -1.168267584264113673e-01
1.159999999999999920e+00 -5.427798785562267664e-02
1.169999999999999929e+00 8.400212112980504076e-03
1.179999999999999938e+00 6.863372187179478390e-02
1.189999999999999947e+00 1.231278806228072731e-01
1.199999999999999956e+00 1.705489807011798531e-01
1.209999999999999964e+00 2.070883183914027370e-01
1.219999999999999973e+00 2.331043760688097377e-01
1.229999999999999982e+00 2.455992321078571128e-01
1.239999999999999991e+00 2.456206671031565258e-01
1.250000000000000000e+00 2.319783836763340268e-01
1.260000000000000009e+00 2.060267771945037962e-01
1.270000000000000018e+00 1.685700069416911639e-01
1.280000000000000027e+00 1.211881595289883429e-01
1.290000000000000036e+00 6.622638155333598897e-02
1.300000000000000044e+00 5.632183808139512582e-03
1.310000000000000053e+00 -5.764779312449115622e-02
1.320000000000000062e+00 -1.210280897608053546e-01
1.330000000000000071e+00 -1.820592709546993426e-01
1.340000000000000080e+00 -2.374948620449355008e-01
1.350000000000000089e+00 -2.859400254724181467e-01
1.360000000000000098e+00 -3.244206466330186722e-01
1.370000000000000107e+00 -3.522239095127912556e-01
1.380000000000000115e+00 -3.676552121802831308e-01
1.390000000000000124e+00 -3.703875313134654124e-01
1.400000000000000133e+00 -3.605577040840875491e-01
1.409999999999999920e+00 -3.381143240809184602e-01
1.419999999999999929e+00 -3.049955316542533046e-01
1.429999999999999938e+00 -2.615371096814807506e-01
1.439999999999999947e+00 -2.108825206743562553e-01
1.449999999999999956e+00 -1.540441994758758870e-01
1.459999999999999964e+00 -9.433576080514144424e-02
1.469999999999999973e+00 -3.388109512723917749e-02
1.479999999999999982e+00 2.475813708197928398e-02
1.489999999999999991e+00 7.901781530239450346e-02
1.500000000000000000e+00 1.268851555081867422e-01
1.510000000000000009e+00 1.664093332211668552e-01
1.520000000000000018e+00 1.958724788858617061e-01
1.530000000000000027e+00 2.147499291652477660e-01
1.540000000000000036e+00 2.214821087339399197e-01
1.550000000000000044e+00 2.173255518513779738e-01
1.560000000000000053e+00 2.009350705138722992e-01
1.570000000000000062e+00 1.750218278231690239e-01
1.580000000000000071e+00 1.391185056147695720e-01
1.590000000000000080e+00 9.627707194457452156e-02
1.600000000000000089e+00 4.747556078746925645e-02
1.610000000000000098e+00 -4.655497556237160259e-03
1.620000000000000107e+00 -5.819349619880537922e-02
1.630000000000000115e+00 -1.108222364096131535e-01
1.640000000000000124e+00 -1.606068838961467737e-01
1.650000000000000133e+00 -2.053676726304575761e-01
1.660000000000000142e+00 -2.440341253682956901e-01
1.669999999999999929e+00 -2.744356438788322361e-01
1.679999999999999938e+00 -2.969525758019960215e-01
1.689999999999999947e+00 -3.094417600630789411e-01
1.699999999999999956e+00 -3.135907958979587962e-01
1.709999999999999964e+00 -3.083388750145244495e-01
1.719999999999999973e+00 -2.955764619324059983e-01
1.729999999999999982e+00 -2.756849996239856271e-01
1.739999999999999991e+00 -2.505267186846775185e-01
1.750000000000000000e+00 -2.215398056476224620e-01
1.760000000000000009e+00 -1.905786071029094975e-01
1.770000000000000018e+00 -1.594225140794233442e-01
1.780000000000000027e+00 -1.300327895052613980e-01
1.790000000000000036e+00 -1.037240654469574613e-01
1.800000000000000044e+00 -8.266996828583673962e-02
1.810000000000000053e+00 -6.715340989313979547e-02
1.820000000000000062e+00 -5.925589246257803588e-02
1.830000000000000071e+00 -5.837440683750442366e-02
1.840000000000000080e+00 -6.567610090503553377e-02
1.850000000000000089e+00 -8.025093107723839381e-02
1.860000000000000098e+00 -1.020156552022884189e-01
1.870000000000000107e+00 -1.298886109919731580e-01
1.880000000000000115e+00 -1.627198019375221683e-01
1.890000000000000124e+00 -1.992437054033392441e-01
1.900000000000000133e+00 -2.377722730174941235e-01
1.910000000000000142e+00 -2.767429222759472118e-01
1.919999999999999929e+00 -3.146451892708935771e-01
1.929999999999999938e+00 -3.494887423159342976e-01
1.939999999999999947e+00 -3.804696158331188904e-01
1.949999999999999956e+00 -4.056287150598699709e-01
1.959999999999999964e+00 -4.247140265165999518e-01
1.969999999999999973e+00 -4.364491158697406670e-01
1.979999999999999982e+00 -4.408862833688598215e-01
1.989999999999999991e+00 -4.378160872287470973e-01
2.000000000000000000e+00 -4.274695887727258947e-01
2.010000000000000231e+00 -4.107177594225028261e-01
2.020000000000000018e+00 -3.879661098760913696e-01
2.030000000000000249e+00 -3.608335977884132850e-01
2.040000000000000036e+00 -3.299933254677256955e-01
2.049999999999999822e+00 -2.972289848463615658e-01
2.060000000000000053e+00 -2.636396600503368992e-01
2.069999999999999840e+00 -2.306014677396047707e-01
2.080000000000000071e+00 -1.994103786538456713e-01
2.089999999999999858e+00 -1.709421533511534252e-01
2.100000000000000089e+00 -1.461642737286187044e-01
2.109999999999999876e+00 -1.255844342212438236e-01
2.120000000000000107e+00 -1.094353097815677078e-01
2.129999999999999893e+00 -9.792780014734027427e-02
2.140000000000000124e+00 -9.045350422792423906e-02
2.149999999999999911e+00 -8.690191181471618176e-02
2.160000000000000142e+00 -8.604182924938851007e-02
2.169999999999999929e+00 -8.733244398646868023e-02
2.180000000000000160e+00 -8.938926107288737433e-02
2.189999999999999947e+00 -9.112611505776578580e-02
2.200000000000000178e+00 -9.142820841860987979e-02
2.209999999999999964e+00 -8.903736347523059924e-02
2.220000000000000195e+00 -8.307932106037982378e-02
2.229999999999999982e+00 -7.267039333242947263e-02
2.240000000000000213e+00 -5.711865090888526564e-02
2.250000000000000000e+00 -3.632756026358886781e-02
2.260000000000000231e+00 -9.793332677062671632e-03
2.270000000000000018e+00 2.165433073210565676e-02
2.280000000000000249e+00 5.821963589242377946e-02
2.290000000000000036e+00 9.838038978322416472e-02
2.300000000000000266e+00 1.417071507708366207e-01
2.310000000000000053e+00 1.865416089277130152e-01
2.319999999999999840e+00 2.316936030707375249e-01
2.330000000000000071e+00 2.756688643236290814e-01
2.339999999999999858e+00 3.169561037829479733e-01
2.350000000000000089e+00 3.541306114090131962e-01
2.359999999999999876e+00 3.860037389055507306e-01
2.370000000000000107e+00 4.111118761393158794e-01
2.379999999999999893e+00 4.291557238844345701e-01
2.390000000000000124e+00 4.385904048745836725e-01
2.399999999999999911e+00 4.403335812663234372e-01
2.410000000000000142e+00 4.328419502925521245e-01
2.419999999999999929e+00 4.180030856011653917e-01
2.430000000000000160e+00 3.951942204422533855e-01
2.439999999999999947e+00 3.663024577343208521e-01
2.450000000000000178e+00 3.318864101063624394e-01
2.459999999999999964e+00 2.936870560870166180e-01
2.470000000000000195e+00 2.530546430762257715e-01
2.479999999999999982e+00 2.116644697296662381e-01
2.490000000000000213e+00 1.710230152524246372e-01
2.500000000000000000e+00 1.328739713690338664e-01
2.510000000000000231e+00 9.820609569800588246e-02
2.520000000000000018e+00 6.893430388089494265e-02
2.530000000000000249e+00 4.508625051144757312e-02
2.540000000000000036e+00 2.848035438624291205e-02
2.550000000000000266e+00 1.837349046069792005e-02
2.560000000000000053e+00 1.573854977997613674e-02
2.569999999999999840e+00 1.962555228135888161e-02
2.580000000000000071e+00 2.989193119602354815e-02
2.589999999999999858e+00 4.548454922480502094e-02
2.600000000000000089e+00 6.534213544926047168e-02
2.609999999999999876e+00 8.828362552167531851e-02
2.620000000000000107e+00 1.128133560948825359e-01
2.629999999999999893e+00 1.375154033497891504e-01
2.640000000000000124e+00 1.610923519665914128e-01
2.649999999999999911e+00 1.817805646208908443e-01
2.660000000000000142e+00 1.989380615488895443e-01
2.669999999999999929e+00 2.108617118022158565e-01
2.680000000000000160e+00 2.174194570964276541e-01
2.689999999999999947e+00 2.175492056302556210e-01
2.700000000000000178e+00 2.114058654710040119e-01
2.709999999999999964e+00 1.988949006698961242e-01
2.720000000000000195e+00 1.803659809957150473e-01
2.729999999999999982e+00 1.566769709622433948e-01
2.740000000000000213e+00 1.283968209873882771e-01
2.750000000000000000e+00 9.700426624164594502e-02
2.760000000000000231e+00 6.340532939096424347e-02
2.770000000000000018e+00 2.915321254960980685e-02
2.780000000000000249e+00 -4.383301790031360681e-03
2.790000000000000036e+00 -3.604467408572773618e-02
2.800000000000000266e+00 -6.430928745891499598e-02
2.810000000000000053e+00 -8.840535567487889379e-02
2.819999999999999840e+00 -1.072058869626413002e-01
2.830000000000000071e+00 -1.201805000672142160e-01
2.839999999999999858e+00 -1.270204687205331029e-01
2.850000000000000089e+00 -1.273550407032700560e-01
2.859999999999999876e+00 -1.218396542342605193e-01
2.870000000000000107e+00 -1.102846099638901123e-01
2.879999999999999893e+00 -9.414220549219168288e-02
2.890000000000000124e+00 -7.352494746931589886e-02
2.899999999999999911e+00 -5.019068782363909215e-02
2.910000000000000142e+00 -2.489933656035354242e-02
2.919999999999999929e+00 8.939013939877169142e-04
2.930000000000000160e+00 2.601146109810578699e-02
2.939999999999999947e+00 4.929083618617842444e-02
2.950000000000000178e+00 6.966966878984671985e-02
2.959999999999999964e+00 8.617617398050103628e-02
2.970000000000000195e+00 9.833566494552729853e-02
2.979999999999999982e+00 1.053042458527733566e-01
2.990000000000000213e+00 1.074557824811989137e-01
3.000000000000000000e+00 1.040993241542629011e-01
3.010000000000000231e+00 9.638077752747725713e-02
3.020000000000000018e+00 8.404488555013388262e-02
3.030000000000000249e+00 6.852529999240287994e-02
3.040000000000000036e+00 5.031063972837115927e-02
3.050000000000000266e+00 3.070217472128356287e-02
3.060000000000000053e+00 1.069890483696442178e-02
3.070000000000000284e+00 -8.503396431774397357e-03
3.080000000000000071e+00 -2.588371160624170636e-02
3.089999999999999858e+00 -4.028246321600930518e-02
3.100000000000000089e+00 -5.113865386044503386e-02
3.109999999999999876e+00 -5.728339103522629011e-02
3.120000000000000107e+00 -5.895112382386324956e-02
3.129999999999999893e+00 -5.499684549606843192e-02
3.140000000000000124e+00 -4.639381348440371061e-02
3.149999999999999911e+00 -3.259151801865088627e-02
3.160000000000000142e+00 -1.471924679677477296e-02
3.169999999999999929e+00 6.947419477962079454e-03
3.180000000000000160e+00 3.128017071208852307e-02
3.189999999999999947e+00 5.739401886049411150e-02
3.200000000000000178e+00 8.414007717061341984e-02
3.209999999999999964e+00 1.104557335285136915e-01
3.220000000000000195e+00 1.350984798776219686e-01
3.229999999999999982e+00 1.573208412478958595e-01
3.240000000000000213e+00 1.757236361534798286e-01
3.250000000000000000e+00 1.902297860581947664e-01
3.260000000000000231e+00 1.994625518415067966e-01
3.270000000000000018e+00 2.039220114074646317e-01
3.280000000000000249e+00 2.028235063807932448e-01
3.290000000000000036e+00 1.968294643842146141e-01
3.300000000000000266e+00 1.859773561745861059e-01
3.310000000000000053e+00 1.710117402355798288e-01
3.320000000000000284e+00 1.526727391348701723e-01
3.330000000000000071e+00 1.317983283088646762e-01
3.339999999999999858e+00 1.094888522364205752e-01
3.350000000000000089e+00 8.674812591159498931e-02
3.359999999999999876e+00 6.457222238292689709e-02
3.370000000000000107e+00 4.420968170168594613e-02
3.379999999999999893e+00 2.619497894417035719e-02
3.390000000000000124e+00 1.175481076831130442e-02
3.399999999999999911e+00 1.023231248071178280e-03
3.410000000000000142e+00 -5.221335763870195087e-03
3.419999999999999929e+00 -7.080505756029592188e-03
3.430000000000000160e+00 -4.474804895762936677e-03
3.439999999999999947e+00 2.327977896426527363e-03
3.450000000000000178e+00 1.271513207980584995e-02
3.459999999999999964e+00 2.623863683836987620e-02
3.470000000000000195e+00 4.183969158774006325e-02
3.479999999999999982e+00 5.880997354333007687e-02
3.490000000000000213e+00 7.605073307811460737e-02
3.500000000000000000e+00 9.251771598054517320e-02
3.510000000000000231e+00 1.074131453953806326e-01
3.520000000000000018e+00 1.196095591840933559e-01
3.530000000000000249e+00 1.286018035363606371e-01
3.540000000000000036e+00 1.335912499222638439e-01
3.550000000000000266e+00 1.342676210926775360e-01
3.560000000000000053e+00 1.304658933264584153e-01
3.570000000000000284e+00 1.220245044463872525e-01
3.580000000000000071e+00 1.094966211101417869e-01
3.589999999999999858e+00 9.290255887800979995e-02
3.600000000000000089e+00 7.335327968079764782e-02
3.609999999999999876e+00 5.115787909479549422e-02
3.620000000000000107e+00 2.760311755366460715e-02
3.629999999999999893e+00 3.478876498444919557e-03
3.640000000000000124e+00 -2.015556718123225413e-02
3.649999999999999911e+00 -4.225907702294826734e-02
3.660000000000000142e+00 -6.197832513931606641e-02
3.669999999999999929e+00 -7.845616869783460234e-02
3.680000000000000160e+00 -9.096214781361465496e-02
3.689999999999999947e+00 -9.919471218093668663e-02
3.700000000000000178e+00 -1.025027329782899621e-01
3.709999999999999964e+00 -1.013289609808513680e-01
3.720000000000000195e+00 -9.513510298653947428e-02
3.729999999999999982e+00 -8.501610591317658450e-02
3.740000000000000213e+00 -7.078980757500763499e-02
3.750000000000000000e+00 -5.377336601790197457e-02
3.760000000000000231e+00 -3.442141240143901243e-02
3.770000000000000018e+00 -1.389589843002533159e-02
3.780000000000000249e+00 6.917566476171678469e-03
3.790000000000000036e+00 2.697366493869298235e-02
3.800000000000000266e+00 4.538216569403943218e-02
3.810000000000000053e+00 6.114361447911269287e-02
3.820000000000000284e+00 7.377605427338118638e-02
3.830000000000000071e+00 8.227895131080979751e-02
3.839999999999999858e+00 8.686120878833676617e-02
3.850000000000000089e+00 8.654372750498440237e-02
3.859999999999999876e+00 8.217525250056445518e-02
