# [DEFAULT]
# # input and output specifications
# dataformat = QA
# outputtype = gr
# 
# # PDF calculation setup
# mode = xray
# wavelength = 
# composition = Cl4.0Cr1.0Na1.0
# bgscale = 1.0
# rpoly = 0.9
# qmaxinst = 28
# qmin = 0.0
# qmax = 22
# rmin = 0.0
# rmax = 30.0
# rstep = 0.01
# 
# # End of config --------------------------------------------------------------
# 
# #### start data
# #S 1
# #L r(Å)  G(Å$^$)
# 
0.000000000000000000e+00 0.000000000000000000e+00
1.000000000000000021e-02 -5.093568243834992702e-03
2.000000000000000042e-02 -1.018558156872330193e-02
2.999999999999999889e-02 -1.526203830791466112e-02
4.000000000000000083e-02 -2.029092195386582309e-02
5.000000000000000278e-02 -2.520425830959793431e-02
5.999999999999999778e-02 -2.990605092380474103e-02
7.000000000000000666e-02 -3.426344737217683345e-02
8.000000000000000167e-02 -3.808785287569703415e-02
8.999999999999999667e-02 -4.122316623609199177e-02
1.000000000000000056e-01 -4.336524289848164848e-02
1.100000000000000006e-01 -4.442744499279203257e-02
1.199999999999999956e-01 -4.398286201653022615e-02
1.300000000000000044e-01 -4.210063187261612466e-02
1.400000000000000133e-01 -3.834664500023324957e-02
1.499999999999999944e-01 -3.291287081951606991e-02
1.600000000000000033e-01 -2.557269370648388579e-02
1.700000000000000122e-01 -1.657206752341132752e-02
1.799999999999999933e-01 -5.999256610821161566e-03
1.900000000000000022e-01 5.815342663686131480e-03
2.000000000000000111e-01 1.848852140309145686e-02
2.099999999999999922e-01 3.154397642363820919e-02
2.200000000000000011e-01 4.444545572427083258e-02
2.300000000000000100e-01 5.648882812180617413e-02
2.399999999999999911e-01 6.723037607505187585e-02
2.500000000000000000e-01 7.566453084046212418e-02
2.600000000000000089e-01 8.162021369275006266e-02
2.700000000000000178e-01 8.410333812407978782e-02
2.800000000000000266e-01 8.307745511007542938e-02
2.899999999999999800e-01 7.790868135401889105e-02
2.999999999999999889e-01 6.865806987825548435e-02
3.099999999999999978e-01 5.528177371318429567e-02
3.200000000000000067e-01 3.796120502617886944e-02
3.300000000000000155e-01 1.729676216926086252e-02
3.400000000000000244e-01 -6.307778588033475207e-03
3.500000000000000333e-01 -3.177656719989276068e-02
3.599999999999999867e-01 -5.830803860249898080e-02
3.699999999999999956e-01 -8.471303849714711953e-02
3.800000000000000044e-01 -1.096489507912797173e-01
3.900000000000000133e-01 -1.321259235650778796e-01
4.000000000000000222e-01 -1.505586792210567293e-01
4.100000000000000311e-01 -1.641069241222272157e-01
4.199999999999999845e-01 -1.714842437798246855e-01
4.299999999999999933e-01 -1.718984644372179849e-01
4.400000000000000022e-01 -1.648706367617209234e-01
4.500000000000000111e-01 -1.496272887025558995e-01
4.600000000000000200e-01 -1.268050393434008993e-01
4.700000000000000289e-01 -9.575000936101382698e-02
4.799999999999999822e-01 -5.820539947333344677e-02
4.899999999999999911e-01 -1.389306218248569438e-02
5.000000000000000000e-01 3.483109403819540512e-02
5.100000000000000089e-01 8.712907385910065305e-02
5.200000000000000178e-01 1.408463650030619407e-01
5.300000000000000266e-01 1.942024343749891302e-01
5.400000000000000355e-01 2.451294858295067769e-01
5.500000000000000444e-01 2.916367806792540263e-01
5.600000000000000533e-01 3.315429933615682834e-01
5.700000000000000622e-01 3.634954531241397224e-01
5.799999999999999600e-01 3.850297385661148875e-01
5.899999999999999689e-01 3.961779859242741120e-01
5.999999999999999778e-01 3.941601019328245248e-01
6.099999999999999867e-01 3.806208970202465958e-01
6.199999999999999956e-01 3.532802926760550966e-01
6.300000000000000044e-01 3.145677371097299058e-01
6.400000000000000133e-01 2.638677468807731907e-01
6.500000000000000222e-01 2.035604741620219149e-01
6.600000000000000311e-01 1.348116536765398832e-01
6.700000000000000400e-01 6.001248360626291328e-02
6.800000000000000488e-01 -1.849561212833943785e-02
6.900000000000000577e-01 -9.807250809160300564e-02
7.000000000000000666e-01 -1.761737475077916615e-01
7.099999999999999645e-01 -2.495931437499345762e-01
7.199999999999999734e-01 -3.167017789779223436e-01
7.299999999999999822e-01 -3.734663368467043276e-01
7.399999999999999911e-01 -4.197243872941537335e-01
7.500000000000000000e-01 -4.518821202843806284e-01
7.600000000000000089e-01 -4.703677320286707708e-01
7.700000000000000178e-01 -4.731692525589893394e-01
7.800000000000000266e-01 -4.609514259545215431e-01
7.900000000000000355e-01 -4.337877848543920667e-01
8.000000000000000444e-01 -3.924824836335338851e-01
8.100000000000000533e-01 -3.390930283044375493e-01
8.200000000000000622e-01 -2.747147565341309661e-01
8.300000000000000711e-01 -2.027081699898796996e-01
8.399999999999999689e-01 -1.248095998252923833e-01
8.499999999999999778e-01 -4.457486946860791943e-02
8.599999999999999867e-01 3.520714303153590907e-02
8.699999999999999956e-01 1.117646748711613736e-01
8.800000000000000044e-01 1.818045177978776239e-01
8.900000000000000133e-01 2.432956848727041432e-01
9.000000000000000222e-01 2.935912259219708442e-01
9.100000000000000311e-01 3.310471446049687017e-01
9.200000000000000400e-01 3.546573298098296134e-01
9.300000000000000488e-01 3.629529432807755973e-01
9.400000000000000577e-01 3.570647012297499256e-01
9.500000000000000666e-01 3.357247026352045416e-01
9.599999999999999645e-01 3.020709916568329323e-01
9.699999999999999734e-01 2.553195699927723328e-01
9.799999999999999822e-01 1.996228704468421822e-01
9.899999999999999911e-01 1.359179320706508098e-01
1.000000000000000000e+00 6.777368386382083554e-02
1.010000000000000009e+00 -2.427590079913510140e-03
1.020000000000000018e+00 -7.161242795732879196e-02
1.030000000000000027e+00 -1.370888319564858571e-01
1.040000000000000036e+00 -1.960120532370312751e-01
1.050000000000000044e+00 -2.465623274415170985e-01
1.060000000000000053e+00 -2.858927827862765003e-01
1.070000000000000062e+00 -3.139619576342906893e-01
1.080000000000000071e+00 -3.278630425553877292e-01
1.090000000000000080e+00 -3.295186608774083314e-01
1.100000000000000089e+00 -3.167817543700183203e-01
1.110000000000000098e+00 -2.925206362407603566e-01
1.120000000000000107e+00 -2.564823716000353415e-01
1.130000000000000115e+00 -2.114565949376697451e-01
1.140000000000000124e+00 -1.589986108620382588e-01
1.150000000000000133e+00 -1.018184273219032432e-01
1.159999999999999920e+00 -4.243090519137172195e-02
1.169999999999999929e+00 1.635319307014968318e-02
1.179999999999999938e+00 7.217953148400492458e-02
1.189999999999999947e+00 1.219073979510588990e-01
1.199999999999999956e+00 1.644368729437812038e-01
1.209999999999999964e+00 1.961675493365700740e-01
1.219999999999999973e+00 2.176289429021029398e-01
1.229999999999999982e+00 2.260571382758946035e-01
1.239999999999999991e+00 2.225979555770167262e-01
1.250000000000000000e+00 2.062449460783332411e-01
1.260000000000000009e+00 1.784063949207895794e-01
1.270000000000000018e+00 1.399575450069337201e-01
1.280000000000000027e+00 9.250733437196569098e-02
1.290000000000000036e+00 3.833610805689687678e-02
1.300000000000000044e+00 -2.060078213835201885e-02
1.310000000000000053e+00 -8.153747082757487052e-02
1.320000000000000062e+00 -1.419127108296798501e-01
1.330000000000000071e+00 -1.995129624095128840e-01
1.340000000000000080e+00 -2.511828675071526296e-01
1.350000000000000089e+00 -2.957378023274234158e-01
1.360000000000000098e+00 -3.303564960321638821e-01
1.370000000000000107e+00 -3.544849810056636130e-01
1.380000000000000115e+00 -3.665816358173127343e-01
1.390000000000000124e+00 -3.664440271687118833e-01
1.400000000000000133e+00 -3.542972924650533151e-01
1.409999999999999920e+00 -3.301944742607201277e-01
1.419999999999999929e+00 -2.960578586125194311e-01
1.429999999999999938e+00 -2.523116499925994183e-01
1.439999999999999947e+00 -2.019745065174254062e-01
1.449999999999999956e+00 -1.461227310386098710e-01
1.459999999999999964e+00 -8.788047754415780066e-02
1.469999999999999973e+00 -2.934982969444326420e-02
1.479999999999999982e+00 2.707773732920429680e-02
1.489999999999999991e+00 7.893713540394979578e-02
1.500000000000000000e+00 1.243620958496114426e-01
1.510000000000000009e+00 1.615248557834471910e-01
1.520000000000000018e+00 1.888387002674301596e-01
1.530000000000000027e+00 2.058689143753115736e-01
1.540000000000000036e+00 2.111804077753132447e-01
1.550000000000000044e+00 2.060430570692312058e-01
1.560000000000000053e+00 1.892317669230283161e-01
1.570000000000000062e+00 1.633841908016009370e-01
1.580000000000000071e+00 1.281173546751848136e-01
1.590000000000000080e+00 8.636480814891082936e-02
1.600000000000000089e+00 3.910859004059462352e-02
1.610000000000000098e+00 -1.113816299814279244e-02
1.620000000000000107e+00 -6.252176762645053620e-02
1.630000000000000115e+00 -1.128393520048632526e-01
1.640000000000000124e+00 -1.602585987971315851e-01
1.650000000000000133e+00 -2.027135248689772018e-01
1.660000000000000142e+00 -2.392216560097469025e-01
1.669999999999999929e+00 -2.677327636755978402e-01
1.679999999999999938e+00 -2.886580575204265031e-01
1.689999999999999947e+00 -2.999830038353095141e-01
1.699999999999999956e+00 -3.033584329347233099e-01
1.709999999999999964e+00 -2.978103574488353833e-01
1.719999999999999973e+00 -2.851677525413597869e-01
1.729999999999999982e+00 -2.658274515149083306e-01
1.739999999999999991e+00 -2.415807756470281786e-01
1.750000000000000000e+00 -2.138151783611283996e-01
1.760000000000000009e+00 -1.843078058226839677e-01
1.770000000000000018e+00 -1.547489998566081992e-01
1.780000000000000027e+00 -1.270130826147985448e-01
1.790000000000000036e+00 -1.023272371653088375e-01
1.800000000000000044e+00 -8.276294535791768603e-02
1.810000000000000053e+00 -6.855332617236017945e-02
1.820000000000000062e+00 -6.167188094485410305e-02
1.830000000000000071e+00 -6.151024010343453946e-02
1.840000000000000080e+00 -6.916003104362249132e-02
1.850000000000000089e+00 -8.372859799752602195e-02
1.860000000000000098e+00 -1.051141809452380699e-01
1.870000000000000107e+00 -1.322661314582811720e-01
1.880000000000000115e+00 -1.640736118966389101e-01
1.890000000000000124e+00 -1.993131588571611379e-01
1.900000000000000133e+00 -2.363742354543536539e-01
1.910000000000000142e+00 -2.737500227323328428e-01
1.919999999999999929e+00 -3.100133552852152308e-01
1.929999999999999938e+00 -3.432475616943409524e-01
1.939999999999999947e+00 -3.727071966345281151e-01
1.949999999999999956e+00 -3.965110819583434476e-01
1.959999999999999964e+00 -4.144345137543842816e-01
1.969999999999999973e+00 -4.252539053314989825e-01
1.979999999999999982e+00 -4.290258497757288292e-01
1.989999999999999991e+00 -4.255479540157835472e-01
2.000000000000000000e+00 -4.150368771947268720e-01
2.010000000000000231e+00 -3.983231219771752318e-01
2.020000000000000018e+00 -3.757781153685573194e-01
2.030000000000000249e+00 -3.489503280041880706e-01
2.040000000000000036e+00 -3.184539771964669530e-01
2.049999999999999822e+00 -2.860021656150831260e-01
2.060000000000000053e+00 -2.526091465403148550e-01
2.069999999999999840e+00 -2.196031098266562898e-01
2.080000000000000071e+00 -1.881951739802746881e-01
2.089999999999999858e+00 -1.592333963027293131e-01
2.100000000000000089e+00 -1.336336186675138871e-01
2.109999999999999876e+00 -1.118919375932837246e-01
2.120000000000000107e+00 -9.424425633382149670e-02
2.129999999999999893e+00 -8.090656643578858498e-02
2.140000000000000124e+00 -7.133051274587808022e-02
2.149999999999999911e+00 -6.543458251147596383e-02
2.160000000000000142e+00 -6.208463679725073625e-02
2.169999999999999929e+00 -6.080549993029119027e-02
2.180000000000000160e+00 -6.031272923669239727e-02
2.189999999999999947e+00 -5.962595954342957832e-02
2.200000000000000178e+00 -5.771096592463854230e-02
2.209999999999999964e+00 -5.342292390795971846e-02
2.220000000000000195e+00 -4.595518006998156046e-02
2.229999999999999982e+00 -3.450122884846403004e-02
2.240000000000000213e+00 -1.843040189362753906e-02
2.250000000000000000e+00 2.346569723557420314e-03
2.260000000000000231e+00 2.827796101795666817e-02
2.270000000000000018e+00 5.860989128622667854e-02
2.280000000000000249e+00 9.350551446184406090e-02
2.290000000000000036e+00 1.315836268292706057e-01
2.300000000000000266e+00 1.724215210839482315e-01
2.310000000000000053e+00 2.145158328348279464e-01
2.319999999999999840e+00 2.567543410529480874e-01
2.330000000000000071e+00 2.977792620274448687e-01
2.339999999999999858e+00 3.361978713735865321e-01
2.350000000000000089e+00 3.707118263304835515e-01
2.359999999999999876e+00 4.002390503803596178e-01
2.370000000000000107e+00 4.234422747350148342e-01
2.379999999999999893e+00 4.400671819575915911e-01
2.390000000000000124e+00 4.487002757174904377e-01
2.399999999999999911e+00 4.502097756053159427e-01
2.410000000000000142e+00 4.431832927947778056e-01
2.419999999999999929e+00 4.293767399472632196e-01
2.430000000000000160e+00 4.082248712742465035e-01
2.439999999999999947e+00 3.814728207315867814e-01
2.450000000000000178e+00 3.496374968266190986e-01
2.459999999999999964e+00 3.143194189668901406e-01
2.470000000000000195e+00 2.767547600627173199e-01
2.479999999999999982e+00 2.384724867439070861e-01
2.490000000000000213e+00 2.008441834699739581e-01
2.500000000000000000e+00 1.654477762617093672e-01
2.510000000000000231e+00 1.331768425954454882e-01
2.520000000000000018e+00 1.057486307661964914e-01
2.530000000000000249e+00 8.318011299178239282e-02
2.540000000000000036e+00 6.708410717158769243e-02
2.550000000000000266e+00 5.677663497060265324e-02
2.560000000000000053e+00 5.309674113728848899e-02
2.569999999999999840e+00 5.516824076270820248e-02
2.580000000000000071e+00 6.282525302467574513e-02
2.589999999999999858e+00 7.509299713083866790e-02
2.600000000000000089e+00 9.099305097517512708e-02
2.609999999999999876e+00 1.094302139215758279e-01
2.620000000000000107e+00 1.290633120110036280e-01
2.629999999999999893e+00 1.485834102140137780e-01
2.640000000000000124e+00 1.668631786970375952e-01
2.649999999999999911e+00 1.822855724582998771e-01
2.660000000000000142e+00 1.943397409009981203e-01
2.669999999999999929e+00 2.014961472495770956e-01
2.680000000000000160e+00 2.037031357028398215e-01
2.689999999999999947e+00 2.000461070009119102e-01
2.700000000000000178e+00 1.907315338121910731e-01
2.709999999999999964e+00 1.757368631143731430e-01
2.720000000000000195e+00 1.554500840226408775e-01
2.729999999999999982e+00 1.307011886867337491e-01
2.740000000000000213e+00 1.020892323125717205e-01
2.750000000000000000e+00 7.097049953592009242e-02
2.760000000000000231e+00 3.826643695453123967e-02
2.770000000000000018e+00 5.350650966149656136e-03
2.780000000000000249e+00 -2.643692230870688109e-02
2.790000000000000036e+00 -5.611020198551208010e-02
2.800000000000000266e+00 -8.223576418639588770e-02
2.810000000000000053e+00 -1.041757681137531200e-01
2.819999999999999840e+00 -1.209131688190158566e-01
2.830000000000000071e+00 -1.320236121670539386e-01
2.839999999999999858e+00 -1.372806247263828050e-01
2.850000000000000089e+00 -1.364029219738303045e-01
2.859999999999999876e+00 -1.300645768311104733e-01
2.870000000000000107e+00 -1.181542375806761969e-01
2.879999999999999893e+00 -1.020654818710937661e-01
2.890000000000000124e+00 -8.197450269082158514e-02
2.899999999999999911e+00 -5.952476785989241348e-02
2.910000000000000142e+00 -3.548212509918585028e-02
2.919999999999999929e+00 -1.118799957406571219e-02
2.930000000000000160e+00 1.223584799074652410e-02
2.939999999999999947e+00 3.373052326550120272e-02
2.950000000000000178e+00 5.231990233606183260e-02
2.959999999999999964e+00 6.712996072515654833e-02
2.970000000000000195e+00 7.776209793811104942e-02
2.979999999999999982e+00 8.347087350089836544e-02
2.990000000000000213e+00 8.465994342088103974e-02
3.000000000000000000e+00 8.074102132204047377e-02
3.010000000000000231e+00 7.282679846558198777e-02
3.020000000000000018e+00 6.075012340022248325e-02
3.030000000000000249e+00 4.587062396005454901e-02
3.040000000000000036e+00 2.870880979718545833e-02
3.050000000000000266e+00 1.048876413051673222e-02
3.060000000000000053e+00 -7.820461847458480900e-03
3.070000000000000284e+00 -2.509947730121022541e-02
3.080000000000000071e+00 -4.039796348760395228e-02
3.089999999999999858e+00 -5.263480518212470399e-02
3.100000000000000089e+00 -6.132802809492234053e-02
3.109999999999999876e+00 -6.539549301558300609e-02
3.120000000000000107e+00 -6.512452961894210635e-02
3.129999999999999893e+00 -5.947033313763847723e-02
3.140000000000000124e+00 -4.941495498301860106e-02
3.149999999999999911e+00 -3.449416585834095411e-02
3.160000000000000142e+00 -1.582109585032773214e-02
3.169999999999999929e+00 6.284844154996826505e-03
3.180000000000000160e+00 3.072163662018794622e-02
3.189999999999999947e+00 5.661205075548449844e-02
3.200000000000000178e+00 8.283821317242170967e-02
3.209999999999999964e+00 1.083884575422973812e-01
3.220000000000000195e+00 1.320564678059100716e-01
3.229999999999999982e+00 1.531678338894440494e-01
3.240000000000000213e+00 1.703690881402026291e-01
3.250000000000000000e+00 1.836515736393768972e-01
3.260000000000000231e+00 1.916976494314087398e-01
3.270000000000000018e+00 1.950521605194017738e-01
3.280000000000000249e+00 1.929889867443997375e-01
3.290000000000000036e+00 1.861948231167722956e-01
3.300000000000000266e+00 1.747448229658231655e-01
3.310000000000000053e+00 1.593956281635032224e-01
3.320000000000000284e+00 1.408921812055966838e-01
3.330000000000000071e+00 1.200777598831425097e-01
3.339999999999999858e+00 9.802470215666278519e-02
3.350000000000000089e+00 7.573713881612897936e-02
3.359999999999999876e+00 5.416081693283664178e-02
3.370000000000000107e+00 3.453871384663560751e-02
3.379999999999999893e+00 1.735119083532468687e-02
3.390000000000000124e+00 3.806291560492013754e-03
3.399999999999999911e+00 -6.000431045960125109e-03
3.410000000000000142e+00 -1.131433434986280594e-02
3.419999999999999929e+00 -1.226004270783045101e-02
3.430000000000000160e+00 -8.774037043695908158e-03
3.439999999999999947e+00 -1.134585200183839144e-03
3.450000000000000178e+00 1.004448050698130042e-02
3.459999999999999964e+00 2.431512514011392040e-02
3.470000000000000195e+00 4.063097063258691577e-02
3.479999999999999982e+00 5.829320723358887013e-02
3.490000000000000213e+00 7.622090202351462784e-02
3.500000000000000000e+00 9.338761088568768576e-02
3.510000000000000231e+00 1.090093304226659593e-01
3.520000000000000018e+00 1.219769478750939717e-01
3.530000000000000249e+00 1.317913832010501052e-01
3.540000000000000036e+00 1.376622033217614338e-01
3.550000000000000266e+00 1.392757398767080212e-01
3.560000000000000053e+00 1.364583801218804127e-01
3.570000000000000284e+00 1.290327387524453362e-01
3.580000000000000071e+00 1.175280938876571979e-01
3.589999999999999858e+00 1.019316558956001317e-01
3.600000000000000089e+00 8.332581013764639444e-02
3.609999999999999876e+00 6.196321528763193420e-02
3.620000000000000107e+00 3.910978749009415278e-02
3.629999999999999893e+00 1.548639486999076921e-02
3.640000000000000124e+00 -7.862613809259334091e-03
3.649999999999999911e+00 -2.995567164798134535e-02
3.660000000000000142e+00 -4.995323250524386777e-02
3.669999999999999929e+00 -6.702797747810203266e-02
3.680000000000000160e+00 -8.046343114906023830e-02
3.689999999999999947e+00 -8.994533651870476043e-02
3.700000000000000178e+00 -9.483429026198429701e-02
3.709999999999999964e+00 -9.551672296101278159e-02
3.720000000000000195e+00 -9.145642927120607724e-02
3.729999999999999982e+00 -8.366277082294615308e-02
3.740000000000000213e+00 -7.192926880079023033e-02
3.750000000000000000e+00 -5.748588476817872300e-02
3.760000000000000231e+00 -4.072832991414304660e-02
3.770000000000000018e+00 -2.274496271877370773e-02
3.780000000000000249e+00 -4.348672867518450780e-03
3.790000000000000036e+00 1.348160215734495355e-02
3.800000000000000266e+00 2.991171127642668764e-02
3.810000000000000053e+00 4.400742590506409591e-02
3.820000000000000284e+00 5.530030331163358209e-02
3.830000000000000071e+00 6.285604659114253645e-02
3.839999999999999858e+00 6.684035426381074174e-02
3.850000000000000089e+00 6.633712920283091341e-02
3.859999999999999876e+00 6.210666729399622749e-02
