# [DEFAULT]
# # input and output specifications
# dataformat = QA
# outputtype = gr
# 
# # PDF calculation setup
# mode = xray
# wavelength = 
# composition = Cl4.0Cr1.0Na1.0
# bgscale = 1.0
# rpoly = 0.9
# qmaxinst = 28
# qmin = 0.0
# qmax = 22
# rmin = 0.0
# rmax = 30.0
# rstep = 0.01
# 
# # End of config --------------------------------------------------------------
# 
# #### start data
# #S 1
# #L r(Å)  G(Å$^$)
# 
0.000000000000000000e+00 0.000000000000000000e+00
1.000000000000000021e-02 -2.157521920067566757e-03
2.000000000000000042e-02 -4.467173182656373163e-03
2.999999999999999889e-02 -7.102196451845104591e-03
4.000000000000000083e-02 -1.012746773216178023e-02
5.000000000000000278e-02 -1.362700495556500545e-02
5.999999999999999778e-02 -1.755913511929443546e-02
7.000000000000000666e-02 -2.184639666868984711e-02
8.000000000000000167e-02 -2.632060451505029847e-02
8.999999999999999667e-02 -3.076020019230281746e-02
1.000000000000000056e-01 -3.484453017877241210e-02
1.100000000000000006e-01 -3.832133704819247477e-02
1.199999999999999956e-01 -4.069556672800449942e-02
1.300000000000000044e-01 -4.183201093937373438e-02
1.400000000000000133e-01 -4.115364112493710702e-02
1.499999999999999944e-01 -3.867906043950909006e-02
1.600000000000000033e-01 -3.399725967051367426e-02
1.700000000000000122e-01 -2.722477511502178690e-02
1.799999999999999933e-01 -1.829954078259532491e-02
1.900000000000000022e-01 -7.456208909035043179e-03
2.000000000000000111e-01 4.971521984608213117e-03
2.099999999999999922e-01 1.857299163831121688e-02
2.200000000000000011e-01 3.273065818578667352e-02
2.300000000000000100e-01 4.676625992854515496e-02
2.399999999999999911e-01 6.004202775206072401e-02
2.500000000000000000e-01 7.151534113522936553e-02
2.600000000000000089e-01 8.077630612506885022e-02
2.700000000000000178e-01 8.668817081975699335e-02
2.800000000000000266e-01 8.901091325276898336e-02
2.899999999999999800e-01 8.691279216042370470e-02
2.999999999999999889e-01 8.028175495975065079e-02
3.099999999999999978e-01 6.891216782891068648e-02
3.200000000000000067e-01 5.283540090326863808e-02
3.300000000000000155e-01 3.260523768242816478e-02
3.400000000000000244e-01 8.500816102370051253e-03
3.500000000000000333e-01 -1.829318449759298124e-02
3.599999999999999867e-01 -4.705409951276112723e-02
3.699999999999999956e-01 -7.635389213854683332e-02
3.800000000000000044e-01 -1.048139060133062017e-01
3.900000000000000133e-01 -1.311681153141534273e-01
4.000000000000000222e-01 -1.536503866461120527e-01
4.100000000000000311e-01 -1.711568971872480527e-01
4.199999999999999845e-01 -1.821466101009519001e-01
4.299999999999999933e-01 -1.855663739729232764e-01
4.400000000000000022e-01 -1.807240576765771767e-01
4.500000000000000111e-01 -1.665765595636879426e-01
4.600000000000000200e-01 -1.436990056451006581e-01
4.700000000000000289e-01 -1.111629596590451019e-01
4.799999999999999822e-01 -7.087162992316706212e-02
4.899999999999999911e-01 -2.229945700836836325e-02
5.000000000000000000e-01 3.185384416664067270e-02
5.100000000000000089e-01 9.078719948366928416e-02
5.200000000000000178e-01 1.519822162519067488e-01
5.300000000000000266e-01 2.134505579394550823e-01
5.400000000000000355e-01 2.727387422151582586e-01
5.500000000000000444e-01 3.274970956109979903e-01
5.600000000000000533e-01 3.751065222369819319e-01
5.700000000000000622e-01 4.138581318048100699e-01
5.799999999999999600e-01 4.407576162456652846e-01
5.899999999999999689e-01 4.556593452145457079e-01
5.999999999999999778e-01 4.551334403715417976e-01
6.099999999999999867e-01 4.409345766966584756e-01
6.199999999999999956e-01 4.101471879036413526e-01
6.300000000000000044e-01 3.654985271215920317e-01
6.400000000000000133e-01 3.060192158368225113e-01
6.500000000000000222e-01 2.344122674392682959e-01
6.600000000000000311e-01 1.518765067476799402e-01
6.700000000000000400e-01 6.114512080983562636e-02
6.800000000000000488e-01 -3.506127584603489777e-02
6.900000000000000577e-01 -1.337029131116954095e-01
7.000000000000000666e-01 -2.316544914722456217e-01
7.099999999999999645e-01 -3.251795009351481913e-01
7.199999999999999734e-01 -4.120865359132347416e-01
7.299999999999999822e-01 -4.875960743246299245e-01
7.399999999999999911e-01 -5.511798966485197404e-01
7.500000000000000000e-01 -5.984247167685745605e-01
7.600000000000000089e-01 -6.295343949284365470e-01
7.700000000000000178e-01 -6.418491281628257994e-01
7.800000000000000266e-01 -6.358645938640211659e-01
7.900000000000000355e-01 -6.113775043410998311e-01
8.000000000000000444e-01 -5.690261368179131418e-01
8.100000000000000533e-01 -5.110614765453262986e-01
8.200000000000000622e-01 -4.384136687970900947e-01
8.300000000000000711e-01 -3.550829895774981204e-01
8.399999999999999689e-01 -2.626931399640551890e-01
8.499999999999999778e-01 -1.657092536129520510e-01
8.599999999999999867e-01 -6.705025463487826465e-02
8.699999999999999956e-01 2.964354209096460580e-02
8.800000000000000044e-01 1.206270862768203944e-01
8.900000000000000133e-01 2.031688830669087509e-01
9.000000000000000222e-01 2.740305054175483646e-01
9.100000000000000311e-01 3.309656556411725292e-01
9.200000000000000400e-01 3.724888376363931775e-01
9.300000000000000488e-01 3.965571320489889029e-01
9.400000000000000577e-01 4.041412922632976468e-01
9.500000000000000666e-01 3.933861413429916576e-01
9.599999999999999645e-01 3.677044300198231142e-01
9.699999999999999734e-01 3.257181839422396141e-01
9.799999999999999822e-01 2.721957723736099233e-01
9.899999999999999911e-01 2.078023014825538806e-01
1.000000000000000000e+00 1.367078302927179079e-01
1.010000000000000009e+00 6.142733709561036537e-02
1.020000000000000018e+00 -1.441785160598723151e-02
1.030000000000000027e+00 -8.772228674808417448e-02
1.040000000000000036e+00 -1.551247304194956211e-01
1.050000000000000044e+00 -2.143073196960087190e-01
1.060000000000000053e+00 -2.618927361478976534e-01
1.070000000000000062e+00 -2.974681071736340332e-01
1.080000000000000071e+00 -3.175407028822943012e-01
1.090000000000000080e+00 -3.239325668201415431e-01
1.100000000000000089e+00 -3.139288802716416749e-01
1.110000000000000098e+00 -2.905235694113335598e-01
1.120000000000000107e+00 -2.531225601520997182e-01
1.130000000000000115e+00 -2.047162393575290007e-01
1.140000000000000124e+00 -1.468385818436753198e-01
1.150000000000000133e+00 -8.243509805832016646e-02
1.159999999999999920e+00 -1.428629932484366816e-02
1.169999999999999929e+00 5.452670303162554521e-02
1.179999999999999938e+00 1.212159144725298288e-01
1.189999999999999947e+00 1.823055627909601628e-01
1.199999999999999956e+00 2.362642565258903926e-01
1.209999999999999964e+00 2.790519620082627661e-01
1.219999999999999973e+00 3.109103230966013265e-01
1.229999999999999982e+00 3.286075659452586950e-01
1.239999999999999991e+00 3.331408402022233983e-01
1.250000000000000000e+00 3.231582289537655583e-01
1.260000000000000009e+00 2.999993520329664043e-01
1.270000000000000018e+00 2.644276769054766940e-01
1.280000000000000027e+00 2.180268649127977965e-01
1.290000000000000036e+00 1.632304814453122976e-01
1.300000000000000044e+00 1.020054595210964088e-01
1.310000000000000053e+00 3.748498287509129806e-02
1.320000000000000062e+00 -2.769948339985765784e-02
1.330000000000000071e+00 -9.087724546929958069e-02
1.340000000000000080e+00 -1.487013417154513795e-01
1.350000000000000089e+00 -1.995929841879735267e-01
1.360000000000000098e+00 -2.404354637490827840e-01
1.370000000000000107e+00 -2.703860714504761065e-01
1.380000000000000115e+00 -2.876222471936679681e-01
1.390000000000000124e+00 -2.917232198791883668e-01
1.400000000000000133e+00 -2.827649236790119036e-01
1.409999999999999920e+00 -2.606248208103094655e-01
1.419999999999999929e+00 -2.272726259864152332e-01
1.429999999999999938e+00 -1.829915756045144559e-01
1.439999999999999947e+00 -1.310428927384906794e-01
1.449999999999999956e+00 -7.241134068307861216e-02
1.459999999999999964e+00 -1.057082936820545258e-02
1.469999999999999973e+00 5.231646501829824436e-02
1.479999999999999982e+00 1.135526689111815424e-01
1.489999999999999991e+00 1.704851997622414683e-01
1.500000000000000000e+00 2.209909255560892349e-01
1.510000000000000009e+00 2.630267280665549157e-01
1.520000000000000018e+00 2.947831520985418341e-01
1.530000000000000027e+00 3.156820497626915412e-01
1.540000000000000036e+00 3.240847863227707126e-01
1.550000000000000044e+00 3.212589993543604194e-01
1.560000000000000053e+00 3.057921240488725712e-01
1.570000000000000062e+00 2.804683410204833471e-01
1.580000000000000071e+00 2.447856918841031515e-01
1.590000000000000080e+00 2.018931919457376822e-01
1.600000000000000089e+00 1.527887635263581179e-01
1.610000000000000098e+00 1.001906731708915449e-01
1.620000000000000107e+00 4.607930684856853532e-02
1.630000000000000115e+00 -7.153675324410838435e-03
1.640000000000000124e+00 -5.751175091384824745e-02
1.650000000000000133e+00 -1.027516880029948343e-01
1.660000000000000142e+00 -1.417690439383058609e-01
1.669999999999999929e+00 -1.723430388503829902e-01
1.679999999999999938e+00 -1.948662212190701293e-01
1.689999999999999947e+00 -2.071649737223997811e-01
1.699999999999999956e+00 -2.109797928660515631e-01
1.709999999999999964e+00 -2.052637221878086671e-01
1.719999999999999973e+00 -1.919737341875881742e-01
1.729999999999999982e+00 -1.715487105872867402e-01
1.739999999999999991e+00 -1.459260340063363304e-01
1.750000000000000000e+00 -1.166198223985782101e-01
1.760000000000000009e+00 -8.557023022678085511e-02
1.770000000000000018e+00 -5.461597294693665283e-02
1.780000000000000027e+00 -2.581845147623542877e-02
1.790000000000000036e+00 -5.014635295417218391e-04
1.800000000000000044e+00 1.904592730031675826e-02
1.810000000000000053e+00 3.259579967826128910e-02
1.820000000000000062e+00 3.796332673427823406e-02
1.830000000000000071e+00 3.584102960701181922e-02
1.840000000000000080e+00 2.501834518948625394e-02
1.850000000000000089e+00 6.488893484553047777e-03
1.860000000000000098e+00 -1.964154992022401278e-02
1.870000000000000107e+00 -5.221828691146575968e-02
1.880000000000000115e+00 -9.002482027188488112e-02
1.890000000000000124e+00 -1.317330282881338799e-01
1.900000000000000133e+00 -1.755766868349721843e-01
1.910000000000000142e+00 -2.199399273790015874e-01
1.919999999999999929e+00 -2.632540865732819202e-01
1.929999999999999938e+00 -3.034870179247591282e-01
1.939999999999999947e+00 -3.398147573085846251e-01
1.949999999999999956e+00 -3.702618063040646335e-01
1.959999999999999964e+00 -3.945913221673120752e-01
1.969999999999999973e+00 -4.115475967387046685e-01
1.979999999999999982e+00 -4.212255518274648503e-01
1.989999999999999991e+00 -4.234667870569825965e-01
2.000000000000000000e+00 -4.185694213215483961e-01
2.010000000000000231e+00 -4.074602166257790259e-01
2.020000000000000018e+00 -3.906350152060059089e-01
2.030000000000000249e+00 -3.697378492225490976e-01
2.040000000000000036e+00 -3.455509695875333964e-01
2.049999999999999822e+00 -3.198262931376730234e-01
2.060000000000000053e+00 -2.937584939798291161e-01
2.069999999999999840e+00 -2.686462574733862740e-01
2.080000000000000071e+00 -2.458102297497110900e-01
2.089999999999999858e+00 -2.260285773891657635e-01
2.100000000000000089e+00 -2.102045764306474940e-01
2.109999999999999876e+00 -1.987198204792824385e-01
2.120000000000000107e+00 -1.916752852454363110e-01
2.129999999999999893e+00 -1.891087369805009299e-01
2.140000000000000124e+00 -1.902644449140061256e-01
2.149999999999999911e+00 -1.947866671502166691e-01
2.160000000000000142e+00 -2.013543802168007990e-01
2.169999999999999929e+00 -2.090855818871312499e-01
2.180000000000000160e+00 -2.166033614599813528e-01
2.189999999999999947e+00 -2.224866201762549234e-01
2.200000000000000178e+00 -2.256545432679455121e-01
2.209999999999999964e+00 -2.246258379742519240e-01
2.220000000000000195e+00 -2.185557690019281907e-01
2.229999999999999982e+00 -2.065098656679454359e-01
2.240000000000000213e+00 -1.878151599631193713e-01
2.250000000000000000e+00 -1.625132553310834616e-01
2.260000000000000231e+00 -1.301228241311999934e-01
2.270000000000000018e+00 -9.176880201912893109e-02
2.280000000000000249e+00 -4.730707054502635012e-02
2.290000000000000036e+00 1.371142037497761514e-03
2.300000000000000266e+00 5.367352704869286784e-02
2.310000000000000053e+00 1.076086975005061397e-01
2.319999999999999840e+00 1.617173343013342535e-01
2.330000000000000071e+00 2.142387866219672699e-01
2.339999999999999858e+00 2.633785231605118571e-01
2.350000000000000089e+00 3.074767854756553787e-01
2.359999999999999876e+00 3.451578396632760670e-01
2.370000000000000107e+00 3.747251573733842989e-01
2.379999999999999893e+00 3.958719109503824884e-01
2.390000000000000124e+00 4.068114532548387507e-01
2.399999999999999911e+00 4.086698421042316287e-01
2.410000000000000142e+00 3.996678715327823261e-01
2.419999999999999929e+00 3.820574302107996312e-01
2.430000000000000160e+00 3.551428944482882821e-01
2.439999999999999947e+00 3.211592259212492362e-01
2.450000000000000178e+00 2.807911245314980708e-01
2.459999999999999964e+00 2.360945160708420310e-01
2.470000000000000195e+00 1.886710754764295006e-01
2.479999999999999982e+00 1.405015935797706839e-01
2.490000000000000213e+00 9.335888973726196027e-02
2.500000000000000000e+00 4.931554314193128952e-02
2.510000000000000231e+00 9.526452644323089164e-03
2.520000000000000018e+00 -2.371314955255757195e-02
2.530000000000000249e+00 -5.038425513018167379e-02
2.540000000000000036e+00 -6.828180110249934542e-02
2.550000000000000266e+00 -7.828808576346125980e-02
2.560000000000000053e+00 -7.918520307575116490e-02
2.569999999999999840e+00 -7.207759910092251254e-02
2.580000000000000071e+00 -5.706779799347973248e-02
2.589999999999999858e+00 -3.535699294526375991e-02
2.600000000000000089e+00 -8.155862345536073546e-03
2.609999999999999876e+00 2.321026792116461998e-02
2.620000000000000107e+00 5.697067265704254535e-02
2.629999999999999893e+00 9.154738832790867975e-02
2.640000000000000124e+00 1.253372854971943895e-01
2.649999999999999911e+00 1.563666484753919728e-01
2.660000000000000142e+00 1.837499624198013770e-01
2.669999999999999929e+00 2.055302115006726882e-01
2.680000000000000160e+00 2.214247805265106561e-01
2.689999999999999947e+00 2.301489708404935441e-01
2.700000000000000178e+00 2.317621139039264255e-01
2.709999999999999964e+00 2.260523878986774315e-01
2.720000000000000195e+00 2.132979256847518379e-01
2.729999999999999982e+00 1.943807011100730509e-01
2.740000000000000213e+00 1.698061943526074091e-01
2.750000000000000000e+00 1.412123025170395618e-01
2.760000000000000231e+00 1.094492369014743588e-01
2.770000000000000018e+00 7.631338197415572788e-02
2.780000000000000249e+00 4.316150915262345622e-02
2.790000000000000036e+00 1.138769580967696760e-02
2.800000000000000266e+00 -1.742435078990732175e-02
2.810000000000000053e+00 -4.233567818568857721e-02
2.819999999999999840e+00 -6.212364806489889535e-02
2.830000000000000071e+00 -7.614857713013331586e-02
2.839999999999999858e+00 -8.402654821711820488e-02
2.850000000000000089e+00 -8.532585535766716578e-02
2.859999999999999876e+00 -8.067967019386539096e-02
2.870000000000000107e+00 -6.988236066469553920e-02
2.879999999999999893e+00 -5.441967913365187287e-02
2.890000000000000124e+00 -3.443810680892017695e-02
2.899999999999999911e+00 -1.176125296455736435e-02
2.910000000000000142e+00 1.276522144873498341e-02
2.919999999999999929e+00 3.761412030780204863e-02
2.930000000000000160e+00 6.149880122490884726e-02
2.939999999999999947e+00 8.318346504428870969e-02
2.950000000000000178e+00 1.015187174670457715e-01
2.959999999999999964e+00 1.154584939341489480e-01
2.970000000000000195e+00 1.245052712155202829e-01
2.979999999999999982e+00 1.277431674875864898e-01
2.990000000000000213e+00 1.256112447030362511e-01
3.000000000000000000e+00 1.173606089994853191e-01
3.010000000000000231e+00 1.042805390105130958e-01
3.020000000000000018e+00 8.611031518761290415e-02
3.030000000000000249e+00 6.445413763021026754e-02
3.040000000000000036e+00 3.988236175372413678e-02
3.050000000000000266e+00 1.385511453527305502e-02
3.060000000000000053e+00 -1.248821682505749618e-02
3.070000000000000284e+00 -3.779491024232084495e-02
3.080000000000000071e+00 -6.090472639261119980e-02
3.089999999999999858e+00 -8.048897905441326772e-02
3.100000000000000089e+00 -9.591143567794283009e-02
3.109999999999999876e+00 -1.058112159274554737e-01
3.120000000000000107e+00 -1.104608008735688540e-01
3.129999999999999893e+00 -1.085001177341091000e-01
3.140000000000000124e+00 -1.010484806359178561e-01
3.149999999999999911e+00 -8.741370183660764070e-02
3.160000000000000142e+00 -6.888616302987396467e-02
3.169999999999999929e+00 -4.572544213520099432e-02
3.180000000000000160e+00 -1.921105137724533549e-02
3.189999999999999947e+00 9.676167004547989864e-03
3.200000000000000178e+00 3.964214390748396766e-02
3.209999999999999964e+00 6.946455076153541797e-02
3.220000000000000195e+00 9.774774698941297857e-02
3.229999999999999982e+00 1.235855493602081995e-01
3.240000000000000213e+00 1.454007874409959655e-01
3.250000000000000000e+00 1.630187536815107252e-01
3.260000000000000231e+00 1.748645868281833715e-01
3.270000000000000018e+00 1.814162013843708121e-01
3.280000000000000249e+00 1.817341666750788010e-01
3.290000000000000036e+00 1.764942184778877377e-01
3.300000000000000266e+00 1.656704888458473968e-01
3.310000000000000053e+00 1.500386595875491669e-01
3.320000000000000284e+00 1.303797661425242782e-01
3.330000000000000071e+00 1.075757297280090230e-01
3.339999999999999858e+00 8.285290816229468058e-02
3.350000000000000089e+00 5.727902203090595723e-02
3.359999999999999876e+00 3.201637758334390654e-02
3.370000000000000107e+00 8.412294987781513550e-03
3.379999999999999893e+00 -1.284736960898241395e-02
3.390000000000000124e+00 -3.039706118195550921e-02
3.399999999999999911e+00 -4.399726782328779867e-02
3.410000000000000142e+00 -5.273198949701771859e-02
3.419999999999999929e+00 -5.662769431787411517e-02
3.430000000000000160e+00 -5.551817724494106931e-02
3.439999999999999947e+00 -4.961023865545360900e-02
3.450000000000000178e+00 -3.951181359918434083e-02
3.459999999999999964e+00 -2.561512255375089989e-02
3.470000000000000195e+00 -9.061948339220884246e-03
3.479999999999999982e+00 9.489760532096224582e-03
3.490000000000000213e+00 2.879484031491097093e-02
3.500000000000000000e+00 4.783007939397439234e-02
3.510000000000000231e+00 6.564454007963166360e-02
3.520000000000000018e+00 8.107533764085522732e-02
3.530000000000000249e+00 9.350068393781918452e-02
3.540000000000000036e+00 1.020531739724047093e-01
3.550000000000000266e+00 1.063374298509528471e-01
3.560000000000000053e+00 1.061244295227117551e-01
3.570000000000000284e+00 1.011924247236885011e-01
3.580000000000000071e+00 9.206387853175676539e-02
3.589999999999999858e+00 7.872025840929121332e-02
3.600000000000000089e+00 6.228652385826987520e-02
3.609999999999999876e+00 4.305625678080669122e-02
3.620000000000000107e+00 2.236455242974698041e-02
3.629999999999999893e+00 1.023077469209751622e-03
3.640000000000000124e+00 -1.985161346533718951e-02
3.649999999999999911e+00 -3.916524590644099996e-02
3.660000000000000142e+00 -5.600545274464098500e-02
3.669999999999999929e+00 -6.945503255348055294e-02
3.680000000000000160e+00 -7.872256135620982198e-02
3.689999999999999947e+00 -8.346835678299614758e-02
3.700000000000000178e+00 -8.297751364447726596e-02
3.709999999999999964e+00 -7.769943588349696728e-02
3.720000000000000195e+00 -6.703150423832544835e-02
3.729999999999999982e+00 -5.212574039628326689e-02
3.740000000000000213e+00 -3.275388163043362055e-02
3.750000000000000000e+00 -1.031686681617934552e-02
3.760000000000000231e+00 1.472719182116125763e-02
3.770000000000000018e+00 4.113598589859862598e-02
3.780000000000000249e+00 6.797453244442137887e-02
3.790000000000000036e+00 9.411958297987817190e-02
3.800000000000000266e+00 1.186108560284650920e-01
3.810000000000000053e+00 1.403678894437167812e-01
3.820000000000000284e+00 1.588493021526549420e-01
3.830000000000000071e+00 1.729637830909380447e-01
3.839999999999999858e+00 1.829003349703804682e-01
3.850000000000000089e+00 1.875749571621232181e-01
3.859999999999999876e+00 1.878638500686090895e-01
