# [DEFAULT]
# # input and output specifications
# dataformat = QA
# outputtype = gr
# 
# # PDF calculation setup
# mode = xray
# wavelength = 
# composition = Cl4.0Cr1.0Na1.0
# bgscale = 1.0
# rpoly = 0.9
# qmaxinst = 28
# qmin = 0.0
# qmax = 22
# rmin = 0.0
# rmax = 30.0
# rstep = 0.01
# 
# # End of config --------------------------------------------------------------
# 
# #### start data
# #S 1
# #L r(Å)  G(Å$^$)
# 
0.000000000000000000e+00 0.000000000000000000e+00
1.000000000000000021e-02 -2.317820057532767996e-03
2.000000000000000042e-02 -4.782087987863065624e-03
2.999999999999999889e-02 -7.559014476508092717e-03
4.000000000000000083e-02 -1.070961140667471209e-02
5.000000000000000278e-02 -1.431167221173658410e-02
5.999999999999999778e-02 -1.832064150448219075e-02
7.000000000000000666e-02 -2.265579254639893403e-02
8.000000000000000167e-02 -2.714643965567220193e-02
8.999999999999999667e-02 -3.157197312422178881e-02
1.000000000000000056e-01 -3.560948116171445271e-02
1.100000000000000006e-01 -3.901194123089198745e-02
1.199999999999999956e-01 -4.128269330106844326e-02
1.300000000000000044e-01 -4.229458169939964707e-02
1.400000000000000133e-01 -4.147148815766101004e-02
1.499999999999999944e-01 -3.884000577336985116e-02
1.600000000000000033e-01 -3.399334892905200856e-02
1.700000000000000122e-01 -2.705482757072965455e-02
1.799999999999999933e-01 -1.796824729321323810e-02
1.900000000000000022e-01 -6.974464150771130487e-03
2.000000000000000111e-01 5.587750260995776909e-03
2.099999999999999922e-01 1.930137687052114331e-02
2.200000000000000011e-01 3.354679826666037007e-02
2.300000000000000100e-01 4.763873569535408137e-02
2.399999999999999911e-01 6.094180641046154090e-02
2.500000000000000000e-01 7.240567131947331370e-02
2.600000000000000089e-01 8.162654238714266153e-02
2.700000000000000178e-01 8.746321428592852831e-02
2.800000000000000266e-01 8.968158382836462217e-02
2.899999999999999800e-01 8.745007744142510586e-02
2.999999999999999889e-01 8.066210587110786423e-02
3.099999999999999978e-01 6.911601445389178866e-02
3.200000000000000067e-01 5.284853660086297894e-02
3.300000000000000155e-01 3.241952676837187020e-02
3.400000000000000244e-01 8.114183667797912961e-03
3.500000000000000333e-01 -1.887690746261202340e-02
3.599999999999999867e-01 -4.782330576880691742e-02
3.699999999999999956e-01 -7.729322459398019207e-02
3.800000000000000044e-01 -1.058986803541739075e-01
3.900000000000000133e-01 -1.323720563732327105e-01
4.000000000000000222e-01 -1.549388268523517742e-01
4.100000000000000311e-01 -1.724939137808379208e-01
4.199999999999999845e-01 -1.834910001123930268e-01
4.299999999999999933e-01 -1.868750422291360069e-01
4.400000000000000022e-01 -1.819530759197550696e-01
4.500000000000000111e-01 -1.676789682068991760e-01
4.600000000000000200e-01 -1.446319995211143850e-01
4.700000000000000289e-01 -1.118796771745480950e-01
4.799999999999999822e-01 -7.133403534498913845e-02
4.899999999999999911e-01 -2.246524550107628290e-02
5.000000000000000000e-01 3.201565697633330237e-02
5.100000000000000089e-01 9.130754851188171983e-02
5.200000000000000178e-01 1.528823721198792340e-01
5.300000000000000266e-01 2.147467903306141679e-01
5.400000000000000355e-01 2.744382941682794730e-01
5.500000000000000444e-01 3.295990495526590069e-01
5.600000000000000533e-01 3.775998477903297901e-01
5.700000000000000622e-01 4.167231074501586696e-01
5.799999999999999600e-01 4.439611681284826306e-01
5.899999999999999689e-01 4.591624893681242048e-01
5.999999999999999778e-01 4.588782990086324731e-01
6.099999999999999867e-01 4.448626555467171118e-01
6.199999999999999956e-01 4.141771873685752836e-01
6.300000000000000044e-01 3.695515340020401052e-01
6.400000000000000133e-01 3.099965627410350422e-01
6.500000000000000222e-01 2.382158463875872489e-01
6.600000000000000311e-01 1.553965988039665014e-01
6.700000000000000400e-01 6.426960106481241497e-02
6.800000000000000488e-01 -3.244480155389430076e-02
6.900000000000000577e-01 -1.317121496062143848e-01
7.000000000000000666e-01 -2.303946106306316577e-01
7.099999999999999645e-01 -3.247622166455929049e-01
7.199999999999999734e-01 -4.125992754389665729e-01
7.299999999999999822e-01 -4.891305322497501717e-01
7.399999999999999911e-01 -5.537975069573980447e-01
7.500000000000000000e-01 -6.021785324629177483e-01
7.600000000000000089e-01 -6.344506288832554297e-01
7.700000000000000178e-01 -6.479334253667016208e-01
7.800000000000000266e-01 -6.430964799554725886e-01
7.900000000000000355e-01 -6.197110374855693271e-01
8.000000000000000444e-01 -5.783859571423145551e-01
8.100000000000000533e-01 -5.213513254854542645e-01
8.200000000000000622e-01 -4.495004546205546014e-01
8.300000000000000711e-01 -3.668272746569506415e-01
8.399999999999999689e-01 -2.749081804513015537e-01
8.499999999999999778e-01 -1.782217667190048593e-01
8.599999999999999867e-01 -7.963820963679026088e-02
8.699999999999999956e-01 1.717827587365074876e-02
8.800000000000000044e-01 1.085134318930575659e-01
8.900000000000000133e-01 1.916144394847384969e-01
9.000000000000000222e-01 2.632476378363322600e-01
9.100000000000000311e-01 3.211485633475551493e-01
9.200000000000000400e-01 3.638113547312855633e-01
9.300000000000000488e-01 3.891757991660692584e-01
9.400000000000000577e-01 3.981740183986861581e-01
9.500000000000000666e-01 3.889297118676929288e-01
9.599999999999999645e-01 3.648106363043365219e-01
9.699999999999999734e-01 3.244079261662116687e-01
9.799999999999999822e-01 2.724516480175737665e-01
9.899999999999999911e-01 2.095661433820129038e-01
1.000000000000000000e+00 1.398948083627947203e-01
1.010000000000000009e+00 6.591422918398330555e-02
1.020000000000000018e+00 -8.774154060581624073e-03
1.030000000000000027e+00 -8.108697720915755691e-02
1.040000000000000036e+00 -1.476794752413846668e-01
1.050000000000000044e+00 -2.062304806153670012e-01
1.060000000000000053e+00 -2.533760519739547412e-01
1.070000000000000062e+00 -2.886728996417580739e-01
1.080000000000000071e+00 -3.086351841271965935e-01
1.090000000000000080e+00 -3.150356658744978833e-01
1.100000000000000089e+00 -3.051485387031501184e-01
1.110000000000000098e+00 -2.819167273548143227e-01
1.120000000000000107e+00 -2.447128657711712951e-01
1.130000000000000115e+00 -1.964822782148600566e-01
1.140000000000000124e+00 -1.387156806997037750e-01
1.150000000000000133e+00 -7.431595611844257765e-02
1.159999999999999920e+00 -6.028841638490392563e-03
1.169999999999999929e+00 6.310806476331728976e-02
1.179999999999999938e+00 1.303162104316528680e-01
1.189999999999999947e+00 1.921648381636748004e-01
1.199999999999999956e+00 2.470962010598382330e-01
1.209999999999999964e+00 2.911126250846124974e-01
1.219999999999999973e+00 3.243998624225957195e-01
1.229999999999999982e+00 3.437363236466005056e-01
1.239999999999999991e+00 3.500604114196554928e-01
1.250000000000000000e+00 3.419907794875945983e-01
1.260000000000000009e+00 3.208056863578748752e-01
1.270000000000000018e+00 2.872125889454746894e-01
1.280000000000000027e+00 2.427255494018547566e-01
1.290000000000000036e+00 1.897186537765186698e-01
1.300000000000000044e+00 1.300732272898667830e-01
1.310000000000000053e+00 6.688727710913131008e-02
1.320000000000000062e+00 2.684106297315948242e-03
1.330000000000000071e+00 -5.985699261440183966e-02
1.340000000000000080e+00 -1.175021446554188054e-01
1.350000000000000089e+00 -1.686329869079216115e-01
1.360000000000000098e+00 -2.102059016240589162e-01
1.370000000000000107e+00 -2.413354413539667287e-01
1.380000000000000115e+00 -2.602102335523584498e-01
1.390000000000000124e+00 -2.663657810276202631e-01
1.400000000000000133e+00 -2.598279893340108559e-01
1.409999999999999920e+00 -2.404244056048256417e-01
1.419999999999999929e+00 -2.100313198439821560e-01
1.429999999999999938e+00 -1.688642620681619633e-01
1.439999999999999947e+00 -1.200798337456176756e-01
1.449999999999999956e+00 -6.456245694056454709e-02
1.459999999999999964e+00 -5.702837991284234048e-03
1.469999999999999973e+00 5.446004150568899138e-02
1.479999999999999982e+00 1.132853842753439866e-01
1.489999999999999991e+00 1.682296627334268491e-01
1.500000000000000000e+00 2.172135893768518677e-01
1.510000000000000009e+00 2.582516364601730174e-01
1.520000000000000018e+00 2.895731701552844428e-01
1.530000000000000027e+00 3.105830033704752857e-01
1.540000000000000036e+00 3.196761609469706000e-01
1.550000000000000044e+00 3.180259931463716994e-01
1.560000000000000053e+00 3.042381409330588982e-01
1.570000000000000062e+00 2.809500446290398301e-01
1.580000000000000071e+00 2.476297012976080014e-01
1.590000000000000080e+00 2.072764365867057756e-01
1.600000000000000089e+00 1.607949345114835782e-01
1.610000000000000098e+00 1.107733776963466116e-01
1.620000000000000107e+00 5.906919730760018528e-02
1.630000000000000115e+00 7.951629028385323594e-03
1.640000000000000124e+00 -4.068466270951101582e-02
1.650000000000000133e+00 -8.472343013470054474e-02
1.660000000000000142e+00 -1.230943959672252674e-01
1.669999999999999929e+00 -1.537143230510569780e-01
1.679999999999999938e+00 -1.769118089073149491e-01
1.689999999999999947e+00 -1.906558250069513849e-01
1.699999999999999956e+00 -1.965405724703495061e-01
1.709999999999999964e+00 -1.935846830702497023e-01
1.719999999999999973e+00 -1.835950769141262429e-01
1.729999999999999982e+00 -1.669713592803006852e-01
1.739999999999999991e+00 -1.455046567126314083e-01
1.750000000000000000e+00 -1.205911874932286409e-01
1.760000000000000009e+00 -9.401851177937703419e-02
1.770000000000000018e+00 -6.748034491895261999e-02
1.780000000000000027e+00 -4.286258456696379060e-02
1.790000000000000036e+00 -2.138009371459245050e-02
1.800000000000000044e+00 -5.108177646745535802e-03
1.810000000000000053e+00 5.748999254382491063e-03
1.820000000000000062e+00 9.232220913374103097e-03
1.830000000000000071e+00 5.985095025344914707e-03
1.840000000000000080e+00 -5.051502032411309996e-03
1.850000000000000089e+00 -2.295260545832619736e-02
1.860000000000000098e+00 -4.758274997289948377e-02
1.870000000000000107e+00 -7.786779860917467100e-02
1.880000000000000115e+00 -1.126854680286138027e-01
1.890000000000000124e+00 -1.508081317452897030e-01
1.900000000000000133e+00 -1.906529668736167971e-01
1.910000000000000142e+00 -2.307466763674808075e-01
1.919999999999999929e+00 -2.697274566374285865e-01
1.929999999999999938e+00 -3.057776188950722118e-01
1.939999999999999947e+00 -3.382368481182987385e-01
1.949999999999999956e+00 -3.653928617726452943e-01
1.959999999999999964e+00 -3.871218930316237539e-01
1.969999999999999973e+00 -4.024018609260163193e-01
1.979999999999999982e+00 -4.114172296010362162e-01
1.989999999999999991e+00 -4.141351160771939988e-01
2.000000000000000000e+00 -4.109367436432521670e-01
2.010000000000000231e+00 -4.027163578365948182e-01
2.020000000000000018e+00 -3.900461312988399154e-01
2.030000000000000249e+00 -3.743715673036376312e-01
2.040000000000000036e+00 -3.565221611991496453e-01
2.049999999999999822e+00 -3.379346363101495831e-01
2.060000000000000053e+00 -3.197498474259528045e-01
2.069999999999999840e+00 -3.029388103778227204e-01
2.080000000000000071e+00 -2.886256902374176314e-01
2.089999999999999858e+00 -2.772993423937350488e-01
2.100000000000000089e+00 -2.695895173481077101e-01
2.109999999999999876e+00 -2.655970636060216994e-01
2.120000000000000107e+00 -2.651805534409249487e-01
2.129999999999999893e+00 -2.680722364609209873e-01
2.140000000000000124e+00 -2.734106494102747642e-01
2.149999999999999911e+00 -2.804865729153014353e-01
2.160000000000000142e+00 -2.880887565494454350e-01
2.169999999999999929e+00 -2.949330075651962479e-01
2.180000000000000160e+00 -2.999448176126088828e-01
2.189999999999999947e+00 -3.014465140411257127e-01
2.200000000000000178e+00 -2.986682987055618299e-01
2.209999999999999964e+00 -2.901117435427422730e-01
2.220000000000000195e+00 -2.752224826811802694e-01
2.229999999999999982e+00 -2.532625610405221384e-01
2.240000000000000213e+00 -2.238478229266765429e-01
2.250000000000000000e+00 -1.873437860476520889e-01
2.260000000000000231e+00 -1.435974878330340265e-01
2.270000000000000018e+00 -9.406163824871166534e-02
2.280000000000000249e+00 -3.901064169295244410e-02
2.290000000000000036e+00 1.945282096633256866e-02
2.300000000000000266e+00 8.023228306190224868e-02
2.310000000000000053e+00 1.412628379105070886e-01
2.319999999999999840e+00 2.006431111258338285e-01
2.330000000000000071e+00 2.565823528408324727e-01
2.339999999999999858e+00 3.070344767745811221e-01
2.350000000000000089e+00 3.503108449561317395e-01
2.359999999999999876e+00 3.850420858399303259e-01
2.370000000000000107e+00 4.094897467147550763e-01
2.379999999999999893e+00 4.236161918123770298e-01
2.390000000000000124e+00 4.255983066687971661e-01
2.399999999999999911e+00 4.170346603871314395e-01
2.410000000000000142e+00 3.961634883065546786e-01
2.419999999999999929e+00 3.657778567895455524e-01
2.430000000000000160e+00 3.253840535504149978e-01
2.439999999999999947e+00 2.776613825790540391e-01
2.450000000000000178e+00 2.236403085628920206e-01
2.459999999999999964e+00 1.657533249452468327e-01
2.470000000000000195e+00 1.059566619711176660e-01
2.479999999999999982e+00 4.659525606911167628e-02
2.490000000000000213e+00 -1.033092659420780171e-02
2.500000000000000000e+00 -6.234875460943077596e-02
2.510000000000000231e+00 -1.083095155072874294e-01
2.520000000000000018e+00 -1.454527525478173933e-01
2.530000000000000249e+00 -1.740254682661014629e-01
2.540000000000000036e+00 -1.913824444677636738e-01
2.550000000000000266e+00 -1.987940390335244667e-01
2.560000000000000053e+00 -1.948254713996324661e-01
2.569999999999999840e+00 -1.809146696568771084e-01
2.580000000000000071e+00 -1.572090074094852630e-01
2.589999999999999858e+00 -1.251827131668420967e-01
2.600000000000000089e+00 -8.629238187950431793e-02
2.609999999999999876e+00 -4.209756073550757760e-02
2.620000000000000107e+00 5.281845423269929812e-03
2.629999999999999893e+00 5.403342794128766086e-02
2.640000000000000124e+00 1.022153651960093224e-01
2.649999999999999911e+00 1.475754291432130605e-01
2.660000000000000142e+00 1.889901722572113751e-01
2.669999999999999929e+00 2.241947706314298960e-01
2.680000000000000160e+00 2.527715735223453608e-01
2.689999999999999947e+00 2.731808745945387140e-01
2.700000000000000178e+00 2.853940367332971073e-01
2.709999999999999964e+00 2.890685666775248408e-01
2.720000000000000195e+00 2.844004389106466468e-01
2.729999999999999982e+00 2.722979508362215473e-01
2.740000000000000213e+00 2.531671011279499339e-01
2.750000000000000000e+00 2.288235470811437189e-01
2.760000000000000231e+00 1.999950359418405377e-01
2.770000000000000018e+00 1.687578866561504076e-01
2.780000000000000249e+00 1.363702636407301272e-01
2.790000000000000036e+00 1.045019680969030418e-01
2.800000000000000266e+00 7.472708292665752872e-02
2.810000000000000053e+00 4.817561935542957058e-02
2.819999999999999840e+00 2.612883755023894666e-02
2.830000000000000071e+00 9.343468257334130306e-03
2.839999999999999858e+00 -1.714283014983201785e-03
2.850000000000000089e+00 -6.556553647321104392e-03
2.859999999999999876e+00 -5.741183916862115273e-03
2.870000000000000107e+00 9.431783448440251086e-04
2.879999999999999893e+00 1.206792625316703560e-02
2.890000000000000124e+00 2.744764976439666507e-02
2.899999999999999911e+00 4.529749115179489138e-02
2.910000000000000142e+00 6.471419505693813690e-02
2.919999999999999929e+00 8.418366578140877576e-02
2.930000000000000160e+00 1.023666638781513122e-01
2.939999999999999947e+00 1.180231186808005650e-01
2.950000000000000178e+00 1.299772347217689750e-01
2.959999999999999964e+00 1.371706299970895104e-01
2.970000000000000195e+00 1.391233916797376124e-01
2.979999999999999982e+00 1.349105937488424001e-01
2.990000000000000213e+00 1.250390794325523802e-01
3.000000000000000000e+00 1.087711194214973226e-01
3.010000000000000231e+00 8.750070079776252341e-02
3.020000000000000018e+00 6.102641757868205313e-02
3.030000000000000249e+00 3.106575480006327702e-02
3.040000000000000036e+00 -1.694835765784469261e-03
3.050000000000000266e+00 -3.568157487891465002e-02
3.060000000000000053e+00 -6.961231258427064139e-02
3.070000000000000284e+00 -1.020047037059066825e-01
3.080000000000000071e+00 -1.315777228885545158e-01
3.089999999999999858e+00 -1.568392962301780325e-01
3.100000000000000089e+00 -1.771058773538946030e-01
3.109999999999999876e+00 -1.908051273569127682e-01
3.120000000000000107e+00 -1.982787895106376541e-01
3.129999999999999893e+00 -1.979022632815889138e-01
3.140000000000000124e+00 -1.909700542469421614e-01
3.149999999999999911e+00 -1.765862379068875443e-01
3.160000000000000142e+00 -1.562123910613233135e-01
3.169999999999999929e+00 -1.300343500534628938e-01
3.180000000000000160e+00 -9.947224551913509683e-02
3.189999999999999947e+00 -6.556507769044153666e-02
3.200000000000000178e+00 -2.972288349130586607e-02
3.209999999999999964e+00 6.672917771306284898e-03
3.220000000000000195e+00 4.211684692526587726e-02
3.229999999999999982e+00 7.549487158492125538e-02
3.240000000000000213e+00 1.050993953364555006e-01
3.250000000000000000e+00 1.305617625058944353e-01
3.260000000000000231e+00 1.501314165213850083e-01
3.270000000000000018e+00 1.641494615050603512e-01
3.280000000000000249e+00 1.714844947651001927e-01
3.290000000000000036e+00 1.727170379622497698e-01
3.300000000000000266e+00 1.676694424370852310e-01
3.310000000000000053e+00 1.570353126518685416e-01
3.320000000000000284e+00 1.415307757861721805e-01
3.330000000000000071e+00 1.219490260620245126e-01
3.339999999999999858e+00 9.956282054337371734e-02
3.350000000000000089e+00 7.533702069810785384e-02
3.359999999999999876e+00 5.059085048767167359e-02
3.370000000000000107e+00 2.656027427523647080e-02
3.379999999999999893e+00 4.153312722606111382e-03
3.390000000000000124e+00 -1.530513414139608730e-02
3.399999999999999911e+00 -3.138439243900295605e-02
3.410000000000000142e+00 -4.312016976976425220e-02
3.419999999999999929e+00 -5.038794048340250464e-02
3.430000000000000160e+00 -5.291855185605151557e-02
3.439999999999999947e+00 -5.079346308951249861e-02
3.450000000000000178e+00 -4.450788688191156806e-02
3.459999999999999964e+00 -3.433649404713209896e-02
3.470000000000000195e+00 -2.134019946541620277e-02
3.479999999999999982e+00 -6.050988935833013713e-03
3.490000000000000213e+00 1.030852126525148502e-02
3.500000000000000000e+00 2.684614160979015285e-02
3.510000000000000231e+00 4.258639110998066468e-02
3.520000000000000018e+00 5.646109671255412216e-02
3.530000000000000249e+00 6.781792521684407160e-02
3.540000000000000036e+00 7.582716351175664005e-02
3.550000000000000266e+00 8.007077718973222569e-02
3.560000000000000053e+00 8.030070311586208487e-02
3.570000000000000284e+00 7.628680201802030825e-02
3.580000000000000071e+00 6.848718405978888868e-02
3.589999999999999858e+00 5.688975970862864689e-02
3.600000000000000089e+00 4.252741505379446785e-02
3.609999999999999876e+00 2.571228952636253617e-02
3.620000000000000107e+00 7.684950751718747433e-03
3.629999999999999893e+00 -1.073632253536368521e-02
3.640000000000000124e+00 -2.849908617656859988e-02
3.649999999999999911e+00 -4.451653784575933248e-02
3.660000000000000142e+00 -5.791148554559081424e-02
3.669999999999999929e+00 -6.777924392198050874e-02
3.680000000000000160e+00 -7.334163956208282487e-02
3.689999999999999947e+00 -7.427194502636852436e-02
3.700000000000000178e+00 -6.985252259485180693e-02
3.709999999999999964e+00 -6.054723738639917335e-02
3.720000000000000195e+00 -4.574005761965486277e-02
3.729999999999999982e+00 -2.660211354372170670e-02
3.740000000000000213e+00 -2.890269286038674515e-03
3.750000000000000000e+00 2.397189057302412385e-02
3.760000000000000231e+00 5.352833210075148840e-02
3.770000000000000018e+00 8.451321976477929598e-02
3.780000000000000249e+00 1.159752982451382752e-01
3.790000000000000036e+00 1.467611669164287092e-01
3.800000000000000266e+00 1.758783717241675093e-01
3.810000000000000053e+00 2.022018100055071599e-01
3.820000000000000284e+00 2.251517714612700782e-01
3.830000000000000071e+00 2.435675829413756210e-01
3.839999999999999858e+00 2.576106912221252654e-01
3.850000000000000089e+00 2.660912798920842537e-01
3.859999999999999876e+00 2.698796297868195082e-01
