# [DEFAULT]
# # input and output specifications
# dataformat = QA
# outputtype = gr
# 
# # PDF calculation setup
# mode = xray
# wavelength = 
# composition = Cl4.0Cr1.0Na1.0
# bgscale = 1.0
# rpoly = 0.9
# qmaxinst = 28
# qmin = 0.0
# qmax = 22
# rmin = 0.0
# rmax = 30.0
# rstep = 0.01
# 
# # End of config --------------------------------------------------------------
# 
# #### start data
# #S 1
# #L r(Å)  G(Å$^$)
# 
0.000000000000000000e+00 0.000000000000000000e+00
1.000000000000000021e-02 -2.695876590545496880e-03
2.000000000000000042e-02 -5.522164804755687849e-03
2.999999999999999889e-02 -8.625341492741966931e-03
4.000000000000000083e-02 -1.205580781201704213e-02
5.000000000000000278e-02 -1.587443004200169219e-02
5.999999999999999778e-02 -2.002946044017895472e-02
7.000000000000000666e-02 -2.443229404150137202e-02
8.000000000000000167e-02 -2.890715604717448289e-02
8.999999999999999667e-02 -3.323784633170934200e-02
1.000000000000000056e-01 -3.709850613460256158e-02
1.100000000000000006e-01 -4.025816659392441460e-02
1.199999999999999956e-01 -4.222093122217197153e-02
1.300000000000000044e-01 -4.288230016875773515e-02
1.400000000000000133e-01 -4.167498539607317892e-02
1.499999999999999944e-01 -3.864705953289912510e-02
1.600000000000000033e-01 -3.340843990005874092e-02
1.700000000000000122e-01 -2.610037300504498142e-02
1.799999999999999933e-01 -1.668475112158926063e-02
1.900000000000000022e-01 -5.418368999212486853e-03
2.000000000000000111e-01 7.348269120355156551e-03
2.099999999999999922e-01 2.118298547404149149e-02
2.200000000000000011e-01 3.546662867668624874e-02
2.300000000000000100e-01 4.949959845673456565e-02
2.399999999999999911e-01 6.266142427280328719e-02
2.500000000000000000e-01 7.389018368703860473e-02
2.600000000000000089e-01 8.280695133887908121e-02
2.700000000000000178e-01 8.827205246246916381e-02
2.800000000000000266e-01 9.007519044371514738e-02
2.899999999999999800e-01 8.739950409787727859e-02
2.999999999999999889e-01 8.016143981960993647e-02
3.099999999999999978e-01 6.818012078462747094e-02
3.200000000000000067e-01 5.151613265685621446e-02
3.300000000000000155e-01 3.074686884276536802e-02
3.400000000000000244e-01 6.183845137648545653e-03
3.500000000000000333e-01 -2.097708093979328697e-02
3.599999999999999867e-01 -4.997629318944117605e-02
3.699999999999999956e-01 -7.939315869940380410e-02
3.800000000000000044e-01 -1.078157350992103303e-01
3.900000000000000133e-01 -1.339974012977322160e-01
4.000000000000000222e-01 -1.561570449674428707e-01
4.100000000000000311e-01 -1.732127792825144119e-01
4.199999999999999845e-01 -1.836312194847978252e-01
4.299999999999999933e-01 -1.863833963202996824e-01
4.400000000000000022e-01 -1.808028491955603612e-01
4.500000000000000111e-01 -1.658752453890662004e-01
4.600000000000000200e-01 -1.422089169267042874e-01
4.700000000000000289e-01 -1.089127967620827364e-01
4.799999999999999822e-01 -6.791678534885206564e-02
4.899999999999999911e-01 -1.874534272009206054e-02
5.000000000000000000e-01 3.589070258291873067e-02
5.100000000000000089e-01 9.514127341878708677e-02
5.200000000000000178e-01 1.564847502645195232e-01
5.300000000000000266e-01 2.179002959698269348e-01
5.400000000000000355e-01 2.769347621892681022e-01
5.500000000000000444e-01 3.312321535147287332e-01
5.600000000000000533e-01 3.781757809549816662e-01
5.700000000000000622e-01 4.160789375952608227e-01
5.799999999999999600e-01 4.419537950442942176e-01
5.899999999999999689e-01 4.556995051000941599e-01
5.999999999999999778e-01 4.539021050480190334e-01
6.099999999999999867e-01 4.383698877744354738e-01
6.199999999999999956e-01 4.062214991666854291e-01
6.300000000000000044e-01 3.602311410965917116e-01
6.400000000000000133e-01 2.994779626809961903e-01
6.500000000000000222e-01 2.267038986581211557e-01
6.600000000000000311e-01 1.431543212129268439e-01
6.700000000000000400e-01 5.159891732566151967e-02
6.800000000000000488e-01 -4.521463004793754153e-02
6.900000000000000577e-01 -1.442080503914879019e-01
7.000000000000000666e-01 -2.422611516443517188e-01
7.099999999999999645e-01 -3.355956115849463850e-01
7.199999999999999734e-01 -4.220621042606266249e-01
7.299999999999999822e-01 -4.968389044054695725e-01
7.399999999999999911e-01 -5.594646685158768395e-01
7.500000000000000000e-01 -6.055133873453987237e-01
7.600000000000000089e-01 -6.352487729930177407e-01
7.700000000000000178e-01 -6.460322258777179139e-01
7.800000000000000266e-01 -6.384121474891180092e-01
7.900000000000000355e-01 -6.122269838091688454e-01
8.000000000000000444e-01 -5.681648022706261569e-01
8.100000000000000533e-01 -5.085205661212935935e-01
8.200000000000000622e-01 -4.342767633426649065e-01
8.300000000000000711e-01 -3.494612966075175686e-01
8.399999999999999689e-01 -2.557572355160944166e-01
8.499999999999999778e-01 -1.576297477940518388e-01
8.599999999999999867e-01 -5.805546146349739589e-02
8.699999999999999956e-01 3.934485276398232839e-02
8.800000000000000044e-01 1.307915835580342745e-01
8.900000000000000133e-01 2.135762360016590367e-01
9.000000000000000222e-01 2.844575875512883600e-01
9.100000000000000311e-01 3.412124277926870120e-01
9.200000000000000400e-01 3.823808773991685950e-01
9.300000000000000488e-01 4.059436026718949986e-01
9.400000000000000577e-01 4.129144513315878839e-01
9.500000000000000666e-01 4.014654776123910973e-01
9.599999999999999645e-01 3.750545014176089320e-01
9.699999999999999734e-01 3.323384969810719847e-01
9.799999999999999822e-01 2.781189708663030502e-01
9.899999999999999911e-01 2.130999981209822647e-01
1.000000000000000000e+00 1.414702500821783393e-01
1.010000000000000009e+00 6.577501950692385413e-02
1.020000000000000018e+00 -1.035485993484733767e-02
1.030000000000000027e+00 -8.380279475981709802e-02
1.040000000000000036e+00 -1.512035818729073611e-01
1.050000000000000044e+00 -2.102508404618044502e-01
1.060000000000000053e+00 -2.575680086849735373e-01
1.070000000000000062e+00 -2.927723086261460606e-01
1.080000000000000071e+00 -3.123782754233599968e-01
1.090000000000000080e+00 -3.182460019636410564e-01
1.100000000000000089e+00 -3.076794773263259453e-01
1.110000000000000098e+00 -2.837057060443291534e-01
1.120000000000000107e+00 -2.457584243550370584e-01
1.130000000000000115e+00 -1.968528684727112454e-01
1.140000000000000124e+00 -1.385488747936886034e-01
1.150000000000000133e+00 -7.381144114993803962e-02
1.159999999999999920e+00 -5.434289220412592825e-03
1.169999999999999929e+00 6.348508740329580902e-02
1.179999999999999938e+00 1.301641205706197402e-01
1.189999999999999947e+00 1.911132245410345210e-01
1.199999999999999956e+00 2.448249286700520111e-01
1.209999999999999964e+00 2.872494449529021110e-01
1.219999999999999973e+00 3.186623748820640034e-01
1.229999999999999982e+00 3.358364779032814718e-01
1.239999999999999991e+00 3.397981075302028975e-01
1.250000000000000000e+00 3.292119308257080990e-01
1.260000000000000009e+00 3.054413989812783670e-01
1.270000000000000018e+00 2.692692022562531706e-01
1.280000000000000027e+00 2.222986514748865050e-01
1.290000000000000036e+00 1.669759575101917304e-01
1.300000000000000044e+00 1.052845682737170163e-01
1.310000000000000053e+00 4.035768388512256388e-02
1.320000000000000062e+00 -2.515993223206377041e-02
1.330000000000000071e+00 -8.861040928020672003e-02
1.340000000000000080e+00 -1.466410543606468386e-01
1.350000000000000089e+00 -1.976917123420695865e-01
1.360000000000000098e+00 -2.386515566888324225e-01
1.370000000000000107e+00 -2.686959474369019496e-01
1.380000000000000115e+00 -2.860160218145967881e-01
1.390000000000000124e+00 -2.902076923798639352e-01
1.400000000000000133e+00 -2.813607039637276985e-01
1.409999999999999920e+00 -2.593675942941778834e-01
1.419999999999999929e+00 -2.262045528362976454e-01
1.429999999999999938e+00 -1.821675659146182458e-01
1.439999999999999947e+00 -1.305125310123767812e-01
1.449999999999999956e+00 -7.223259983106573856e-02
1.459999999999999964e+00 -1.078617586299820096e-02
1.469999999999999973e+00 5.166772828656333166e-02
1.479999999999999982e+00 1.124494562011871673e-01
1.489999999999999991e+00 1.689210350356007417e-01
1.500000000000000000e+00 2.189790577380610059e-01
1.510000000000000009e+00 2.605996287357510988e-01
1.520000000000000018e+00 2.919946712966577373e-01
1.530000000000000027e+00 3.126003596456049527e-01
1.540000000000000036e+00 3.208010538980026749e-01
1.550000000000000044e+00 3.178649353424640722e-01
1.560000000000000053e+00 3.024024918222185110e-01
1.570000000000000062e+00 2.771812702246285731e-01
1.580000000000000071e+00 2.417137003451840793e-01
1.590000000000000080e+00 1.991219161769470503e-01
1.600000000000000089e+00 1.503987094691249526e-01
1.610000000000000098e+00 9.823285925245291150e-02
1.620000000000000107e+00 4.458141792408304438e-02
1.630000000000000115e+00 -8.197032600644468120e-03
1.640000000000000124e+00 -5.813722473425207704e-02
1.650000000000000133e+00 -1.030349655837823619e-01
1.660000000000000142e+00 -1.418104020480487892e-01
1.669999999999999929e+00 -1.722898343571730995e-01
1.679999999999999938e+00 -1.948688876534504788e-01
1.689999999999999947e+00 -2.074287440482420475e-01
1.699999999999999956e+00 -2.116876611503573091e-01
1.709999999999999964e+00 -2.066366581772126898e-01
1.719999999999999973e+00 -1.942027779685364108e-01
1.729999999999999982e+00 -1.748306778340081857e-01
1.739999999999999991e+00 -1.504232803723208611e-01
1.750000000000000000e+00 -1.224682092451695459e-01
1.760000000000000009e+00 -9.286442472981897012e-02
1.770000000000000018e+00 -6.340310455289117908e-02
1.780000000000000027e+00 -3.609241892044154354e-02
1.790000000000000036e+00 -1.220752093771316701e-02
1.800000000000000044e+00 6.034111809721082707e-03
1.810000000000000053e+00 1.843342839617917103e-02
1.820000000000000062e+00 2.289026536055636246e-02
1.830000000000000071e+00 2.010219217608624764e-02
1.840000000000000080e+00 8.927000628808384741e-03
1.850000000000000089e+00 -9.646663010314058401e-03
1.860000000000000098e+00 -3.548438072545376937e-02
1.870000000000000107e+00 -6.744327706563510438e-02
1.880000000000000115e+00 -1.043274258039823543e-01
1.890000000000000124e+00 -1.448297440488477972e-01
1.900000000000000133e+00 -1.872481970318026767e-01
1.910000000000000142e+00 -2.300055480997517665e-01
1.919999999999999929e+00 -2.716200465296164102e-01
1.929999999999999938e+00 -3.101284865069385277e-01
1.939999999999999947e+00 -3.447884444956768046e-01
1.949999999999999956e+00 -3.737235346282284376e-01
1.959999999999999964e+00 -3.967604172706031829e-01
1.969999999999999973e+00 -4.127436606192196322e-01
1.979999999999999982e+00 -4.218222827138134456e-01
1.989999999999999991e+00 -4.239031578152239188e-01
2.000000000000000000e+00 -4.193359143821417390e-01
2.010000000000000231e+00 -4.090499308544138790e-01
2.020000000000000018e+00 -3.935903479176390829e-01
2.030000000000000249e+00 -3.745301094118929641e-01
2.040000000000000036e+00 -3.526895843110527395e-01
2.049999999999999822e+00 -3.296911408180348557e-01
2.060000000000000053e+00 -3.067231813981005639e-01
2.069999999999999840e+00 -2.849410143225440395e-01
2.080000000000000071e+00 -2.655900999801434348e-01
2.089999999999999858e+00 -2.493175746521196501e-01
2.100000000000000089e+00 -2.369078488111820702e-01
2.109999999999999876e+00 -2.286124544819130577e-01
2.120000000000000107e+00 -2.244180353211518708e-01
2.129999999999999893e+00 -2.242191493992678197e-01
2.140000000000000124e+00 -2.272006667864962248e-01
2.149999999999999911e+00 -2.328399624758390740e-01
2.160000000000000142e+00 -2.398520800277579024e-01
2.169999999999999929e+00 -2.471635880651665007e-01
2.180000000000000160e+00 -2.535236975198116860e-01
2.189999999999999947e+00 -2.573842989282836835e-01
2.200000000000000178e+00 -2.577993155082306531e-01
2.209999999999999964e+00 -2.532711389247992995e-01
2.220000000000000195e+00 -2.430836547556621541e-01
2.229999999999999982e+00 -2.263881248798113033e-01
2.240000000000000213e+00 -2.026413413766833538e-01
2.250000000000000000e+00 -1.720342244261397480e-01
2.260000000000000231e+00 -1.342339552176733952e-01
2.270000000000000018e+00 -9.052078786012118794e-02
2.280000000000000249e+00 -4.094000371836998414e-02
2.290000000000000036e+00 1.251340213998823267e-02
2.300000000000000266e+00 6.901906151704288728e-02
2.310000000000000053e+00 1.265468173147327458e-01
2.319999999999999840e+00 1.834381629221326637e-01
2.330000000000000071e+00 2.379178449721807975e-01
2.339999999999999858e+00 2.880805710639666173e-01
2.350000000000000089e+00 3.322572700817723046e-01
2.359999999999999876e+00 3.690802084062446697e-01
2.370000000000000107e+00 3.968427208135585360e-01
2.379999999999999893e+00 4.153643576063200116e-01
2.390000000000000124e+00 4.228561103830995593e-01
2.399999999999999911e+00 4.206575407226657015e-01
2.410000000000000142e+00 4.070162519605490248e-01
2.419999999999999929e+00 3.844216701614177056e-01
2.430000000000000160e+00 3.522841594060325821e-01
2.439999999999999947e+00 3.130298166986366648e-01
2.450000000000000178e+00 2.675029253974121612e-01
2.459999999999999964e+00 2.179171236547643165e-01
2.470000000000000195e+00 1.660240090815318093e-01
2.479999999999999982e+00 1.139511844134061536e-01
2.490000000000000213e+00 6.355286249060343451e-02
2.500000000000000000e+00 1.705535103849071393e-02
2.510000000000000231e+00 -2.441364617265668821e-02
2.520000000000000018e+00 -5.839102930813939302e-02
2.530000000000000249e+00 -8.499537503441648156e-02
2.540000000000000036e+00 -1.018801606759244249e-01
2.550000000000000266e+00 -1.101112370534027551e-01
2.560000000000000053e+00 -1.084285975238695188e-01
2.569999999999999840e+00 -9.809576251306285910e-02
2.580000000000000071e+00 -7.927355296252712458e-02
2.589999999999999858e+00 -5.329865655308578531e-02
2.600000000000000089e+00 -2.150122966076900566e-02
2.609999999999999876e+00 1.467060393838313589e-02
2.620000000000000107e+00 5.331539100669765302e-02
2.629999999999999893e+00 9.273000914928120064e-02
2.640000000000000124e+00 1.312182387188101929e-01
2.649999999999999911e+00 1.666657050764038250e-01
2.660000000000000142e+00 1.981562789158607119e-01
2.669999999999999929e+00 2.236075121509291663e-01
2.680000000000000160e+00 2.427425779874967382e-01
2.689999999999999947e+00 2.542031575604908888e-01
2.700000000000000178e+00 2.580671384140272306e-01
2.709999999999999964e+00 2.541155100358882257e-01
2.720000000000000195e+00 2.426460214413660443e-01
2.729999999999999982e+00 2.245936881248411510e-01
2.740000000000000213e+00 2.004810790137034615e-01
2.750000000000000000e+00 1.720381690672148356e-01
2.760000000000000231e+00 1.401317037141646960e-01
2.770000000000000018e+00 1.066586192378247144e-01
2.780000000000000249e+00 7.300124830354257077e-02
2.790000000000000036e+00 4.063069979344277605e-02
2.800000000000000266e+00 1.116488716621175624e-02
2.810000000000000053e+00 -1.441422776181286967e-02
2.819999999999999840e+00 -3.485849279747202378e-02
2.830000000000000071e+00 -4.951172771977910975e-02
2.839999999999999858e+00 -5.798581815552592000e-02
2.850000000000000089e+00 -5.985441821975109183e-02
2.859999999999999876e+00 -5.576735421458096226e-02
2.870000000000000107e+00 -4.554520908180730715e-02
2.879999999999999893e+00 -3.069909244701542195e-02
2.890000000000000124e+00 -1.142405261406219397e-02
2.899999999999999911e+00 1.043683217103123784e-02
2.910000000000000142e+00 3.397954221898480398e-02
2.919999999999999929e+00 5.766433087945838087e-02
2.930000000000000160e+00 8.015735352778018130e-02
2.939999999999999947e+00 1.002146300983682570e-01
2.950000000000000178e+00 1.166682423604725183e-01
2.959999999999999964e+00 1.284679021055653847e-01
2.970000000000000195e+00 1.351348247572687622e-01
2.979999999999999982e+00 1.357557156918955676e-01
2.990000000000000213e+00 1.308223438205851075e-01
3.000000000000000000e+00 1.196022328865672529e-01
3.010000000000000231e+00 1.034553098777034191e-01
3.020000000000000018e+00 8.216336333370896639e-02
3.030000000000000249e+00 5.739732026943514254e-02
3.040000000000000036e+00 2.979428321186810419e-02
3.050000000000000266e+00 8.713360496439498740e-04
3.060000000000000053e+00 -2.816281535431358965e-02
3.070000000000000284e+00 -5.590091455629609546e-02
3.080000000000000071e+00 -8.113664444126594821e-02
3.089999999999999858e+00 -1.024822922234994438e-01
3.100000000000000089e+00 -1.192990617651181195e-01
3.109999999999999876e+00 -1.301589059618442901e-01
3.120000000000000107e+00 -1.353852084620909280e-01
3.129999999999999893e+00 -1.335440356738140655e-01
3.140000000000000124e+00 -1.258450710851925503e-01
3.149999999999999911e+00 -1.115562403382515250e-01
3.160000000000000142e+00 -9.205175182651417765e-02
3.169999999999999929e+00 -6.759954515963237376e-02
3.180000000000000160e+00 -3.954826675760268750e-02
3.189999999999999947e+00 -8.922506145869479877e-03
3.200000000000000178e+00 2.292561665865166382e-02
3.209999999999999964e+00 5.471594044856196992e-02
3.220000000000000195e+00 8.499951152057104442e-02
3.229999999999999982e+00 1.128203880489131727e-01
3.240000000000000213e+00 1.365463217497862869e-01
3.250000000000000000e+00 1.559772513594623600e-01
3.260000000000000231e+00 1.694820421709358482e-01
3.270000000000000018e+00 1.775375586123487670e-01
3.280000000000000249e+00 1.791633901664494433e-01
3.290000000000000036e+00 1.750428710444959790e-01
3.300000000000000266e+00 1.651340917021391352e-01
3.310000000000000053e+00 1.502213082286707468e-01
3.320000000000000284e+00 1.310942214450467325e-01
3.330000000000000071e+00 1.086399822223843570e-01
3.339999999999999858e+00 8.411191911294847723e-02
3.350000000000000089e+00 5.857783576187883950e-02
3.359999999999999876e+00 3.323609905974208439e-02
3.370000000000000107e+00 9.428362289795948550e-03
3.379999999999999893e+00 -1.212537621276009794e-02
3.390000000000000124e+00 -3.006388810480170592e-02
3.399999999999999911e+00 -4.412761825838047713e-02
3.410000000000000142e+00 -5.340337001365290381e-02
3.419999999999999929e+00 -5.791068035548024157e-02
3.430000000000000160e+00 -5.748610100683130414e-02
3.439999999999999947e+00 -5.233974276205141662e-02
3.450000000000000178e+00 -4.308015125639057252e-02
3.459999999999999964e+00 -3.011025446034065398e-02
3.470000000000000195e+00 -1.456568347345367498e-02
3.479999999999999982e+00 2.881090358741649447e-03
3.490000000000000213e+00 2.100114184397917569e-02
3.500000000000000000e+00 3.876115199961051999e-02
3.510000000000000231e+00 5.523362009488771984e-02
3.520000000000000018e+00 6.926144047864316033e-02
3.530000000000000249e+00 8.024920217607621475e-02
3.540000000000000036e+00 8.735262470820219505e-02
3.550000000000000266e+00 9.020921725269488711e-02
3.560000000000000053e+00 8.862330425300708747e-02
3.570000000000000284e+00 8.241768299902778316e-02
3.580000000000000071e+00 7.214525526662213251e-02
3.589999999999999858e+00 5.784950980358174316e-02
3.600000000000000089e+00 4.066618898723330794e-02
3.609999999999999876e+00 2.097310303094448991e-02
3.620000000000000107e+00 8.933350102381155695e-05
3.629999999999999893e+00 -2.109366820408373200e-02
3.640000000000000124e+00 -4.148143758375613666e-02
3.649999999999999911e+00 -5.993077322025239934e-02
3.660000000000000142e+00 -7.554816094530814041e-02
3.669999999999999929e+00 -8.741046256404559622e-02
3.680000000000000160e+00 -9.474122734831678938e-02
3.689999999999999947e+00 -9.723848452755400051e-02
3.700000000000000178e+00 -9.420248312905118993e-02
3.709999999999999964e+00 -8.615375213379385111e-02
3.720000000000000195e+00 -7.251343006649385581e-02
3.729999999999999982e+00 -5.451754537838348486e-02
3.740000000000000213e+00 -3.198353857244953802e-02
3.750000000000000000e+00 -6.385505825539971973e-03
3.760000000000000231e+00 2.175173584857038878e-02
3.770000000000000018e+00 5.112901245952505142e-02
3.780000000000000249e+00 8.074505092941502982e-02
3.790000000000000036e+00 1.094267654942272655e-01
3.800000000000000266e+00 1.361721878344687442e-01
3.810000000000000053e+00 1.598503413594738465e-01
3.820000000000000284e+00 1.799201181090007984e-01
3.830000000000000071e+00 1.952352687719851043e-01
3.839999999999999858e+00 2.060338675974028866e-01
3.850000000000000089e+00 2.111740615026150847e-01
3.859999999999999876e+00 2.116157891002999059e-01
