# [DEFAULT]
# # input and output specifications
# dataformat = QA
# outputtype = gr
# 
# # PDF calculation setup
# mode = xray
# wavelength = 
# composition = Cl4.0Cr1.0Na1.0
# bgscale = 1.0
# rpoly = 0.9
# qmaxinst = 28
# qmin = 0.0
# qmax = 22
# rmin = 0.0
# rmax = 30.0
# rstep = 0.01
# 
# # End of config --------------------------------------------------------------
# 
# #### start data
# #S 1
# #L r(Å)  G(Å$^$)
# 
0.000000000000000000e+00 0.000000000000000000e+00
1.000000000000000021e-02 -2.837610980757043679e-03
2.000000000000000042e-02 -5.803733465443128639e-03
2.999999999999999889e-02 -9.042274128080889095e-03
4.000000000000000083e-02 -1.260178199791490115e-02
5.000000000000000278e-02 -1.653984337966217522e-02
5.999999999999999778e-02 -2.080202530778523656e-02
7.000000000000000666e-02 -2.529624553661061551e-02
8.000000000000000167e-02 -2.984249727561664664e-02
8.999999999999999667e-02 -3.422207374859808499e-02
1.000000000000000056e-01 -3.810288098540505486e-02
1.100000000000000006e-01 -4.125411725596871831e-02
1.199999999999999956e-01 -4.317166339209693726e-02
1.300000000000000044e-01 -4.375494172448940455e-02
1.400000000000000133e-01 -4.242917548979403125e-02
1.499999999999999944e-01 -3.924858204996139327e-02
1.600000000000000033e-01 -3.382048254941374260e-02
1.700000000000000122e-01 -2.629289496908420593e-02
1.799999999999999933e-01 -1.663140760479738661e-02
1.900000000000000022e-01 -5.101022941351651338e-03
2.000000000000000111e-01 7.938948039539088508e-03
2.099999999999999922e-01 2.204526361917644520e-02
2.200000000000000011e-01 3.658819995828717364e-02
2.300000000000000100e-01 5.085249587474553051e-02
2.399999999999999911e-01 6.421037496938282463e-02
2.500000000000000000e-01 7.557820452764189845e-02
2.600000000000000089e-01 8.457606787093827072e-02
2.700000000000000178e-01 9.004379832375815351e-02
2.800000000000000266e-01 9.177238803348097829e-02
2.899999999999999800e-01 8.893274795942547606e-02
2.999999999999999889e-01 8.144410898336411353e-02
3.099999999999999978e-01 6.912578086116427656e-02
3.200000000000000067e-01 5.204321249225381252e-02
3.300000000000000155e-01 3.078703923131693304e-02
3.400000000000000244e-01 5.678013479670173357e-03
3.500000000000000333e-01 -2.206541501181071702e-02
3.599999999999999867e-01 -5.166612647011544629e-02
3.699999999999999956e-01 -8.167892296737695734e-02
3.800000000000000044e-01 -1.106629100825500533e-01
3.900000000000000133e-01 -1.373509008094352946e-01
4.000000000000000222e-01 -1.599274208087333449e-01
4.100000000000000311e-01 -1.772923315877292239e-01
4.199999999999999845e-01 -1.878835267076558457e-01
4.299999999999999933e-01 -1.906534054936128708e-01
4.400000000000000022e-01 -1.849231426524408639e-01
4.500000000000000111e-01 -1.696580748378486714e-01
4.600000000000000200e-01 -1.454777424955911447e-01
4.700000000000000289e-01 -1.114703830695489145e-01
4.799999999999999822e-01 -6.960202896240581805e-02
4.899999999999999911e-01 -1.938080463581177623e-02
5.000000000000000000e-01 3.643106316351301527e-02
5.100000000000000089e-01 9.697591167741488605e-02
5.200000000000000178e-01 1.596850463304989032e-01
5.300000000000000266e-01 2.225062536319105666e-01
5.400000000000000355e-01 2.829410958149816135e-01
5.500000000000000444e-01 3.385915112842296515e-01
5.600000000000000533e-01 3.867921115622164896e-01
5.700000000000000622e-01 4.258203877898787404e-01
5.799999999999999600e-01 4.526307126155029725e-01
5.899999999999999689e-01 4.671098073948809493e-01
5.999999999999999778e-01 4.657727239218623083e-01
6.099999999999999867e-01 4.504472206430706338e-01
6.199999999999999956e-01 4.181819658180025434e-01
6.300000000000000044e-01 3.717879619754370091e-01
6.400000000000000133e-01 3.103034778985808151e-01
6.500000000000000222e-01 2.365049860126532122e-01
6.600000000000000311e-01 1.516362545912904036e-01
6.700000000000000400e-01 5.849798830479296941e-02
6.800000000000000488e-01 -4.012815835703301137e-02
6.900000000000000577e-01 -1.411331302911572327e-01
7.000000000000000666e-01 -2.413394354814049070e-01
7.099999999999999645e-01 -3.369311631039683119e-01
7.199999999999999734e-01 -4.256968907848624473e-01
7.299999999999999822e-01 -5.027613955711609517e-01
7.399999999999999911e-01 -5.676138645320084608e-01
7.500000000000000000e-01 -6.157618006922820353e-01
7.600000000000000089e-01 -6.474337048833742614e-01
7.700000000000000178e-01 -6.599292545233498286e-01
7.800000000000000266e-01 -6.537663436866471001e-01
7.900000000000000355e-01 -6.287450844015959328e-01
8.000000000000000444e-01 -5.855198184308765263e-01
8.100000000000000533e-01 -5.263834337426523957e-01
8.200000000000000622e-01 -4.522769285892055402e-01
8.300000000000000711e-01 -3.672675515003029911e-01
8.399999999999999689e-01 -2.729889505687841389e-01
8.499999999999999778e-01 -1.739788418265368064e-01
8.599999999999999867e-01 -7.317617710125462471e-02
8.699999999999999956e-01 2.572154415960734367e-02
8.800000000000000044e-01 1.189380795700137883e-01
8.900000000000000133e-01 2.037038592573463536e-01
9.000000000000000222e-01 2.767499168645081165e-01
9.100000000000000311e-01 3.358032239388116236e-01
9.200000000000000400e-01 3.793593188362531232e-01
9.300000000000000488e-01 4.053531031435276266e-01
9.400000000000000577e-01 4.147531775587439129e-01
9.500000000000000666e-01 4.056815681744255775e-01
9.599999999999999645e-01 3.815658409047611443e-01
9.699999999999999734e-01 3.410009434581490750e-01
9.799999999999999822e-01 2.887796239111160013e-01
9.899999999999999911e-01 2.255460888185596979e-01
1.000000000000000000e+00 1.554872852210898437e-01
1.010000000000000009e+00 8.110606868199617125e-02
1.020000000000000018e+00 6.030193415164893447e-03
1.030000000000000027e+00 -6.663949070996028068e-02
1.040000000000000036e+00 -1.335466287396113172e-01
1.050000000000000044e+00 -1.923698166114364283e-01
1.060000000000000053e+00 -2.397475615117760084e-01
1.070000000000000062e+00 -2.752526477781123138e-01
1.080000000000000071e+00 -2.954172269778875815e-01
1.090000000000000080e+00 -3.020372649493085482e-01
1.100000000000000089e+00 -2.924208997014766664e-01
1.110000000000000098e+00 -2.695317550775205850e-01
1.120000000000000107e+00 -2.327816004289068874e-01
1.130000000000000115e+00 -1.851325332805666690e-01
1.140000000000000124e+00 -1.281036431986750379e-01
1.150000000000000133e+00 -6.461026148141693626e-02
1.159999999999999920e+00 2.597619855013416634e-03
1.169999999999999929e+00 7.047626674541546121e-02
1.179999999999999938e+00 1.362724124240578816e-01
1.189999999999999947e+00 1.965606185944211992e-01
1.199999999999999956e+00 2.498322730208782372e-01
1.209999999999999964e+00 2.921149035305269370e-01
1.219999999999999973e+00 3.236513374556680422e-01
1.229999999999999982e+00 3.412721572063037168e-01
1.239999999999999991e+00 3.459664662986200456e-01
1.250000000000000000e+00 3.364170323856213729e-01
1.260000000000000009e+00 3.139492834590549286e-01
1.270000000000000018e+00 2.793214873691233779e-01
1.280000000000000027e+00 2.340946087229711092e-01
1.290000000000000036e+00 1.806569984673109808e-01
1.300000000000000044e+00 1.209365740729979877e-01
1.310000000000000053e+00 5.799528396481437587e-02
1.320000000000000062e+00 -5.603309584761080597e-03
1.330000000000000071e+00 -6.726100149395645988e-02
1.340000000000000080e+00 -1.237351711814541899e-01
1.350000000000000089e+00 -1.735037212610323620e-01
1.360000000000000098e+00 -2.135662803654234942e-01
1.370000000000000107e+00 -2.431292847086026776e-01
1.380000000000000115e+00 -2.604613040175531857e-01
1.390000000000000124e+00 -2.651912726351313143e-01
1.400000000000000133e+00 -2.574276981976780232e-01
1.409999999999999920e+00 -2.371013788950898371e-01
1.419999999999999929e+00 -2.061360207577871695e-01
1.429999999999999938e+00 -1.648661581453778335e-01
1.439999999999999947e+00 -1.164289494833399136e-01
1.449999999999999956e+00 -6.184245714875905714e-02
1.459999999999999964e+00 -4.412712552874860535e-03
1.469999999999999973e+00 5.373780687098973774e-02
1.479999999999999982e+00 1.100621315458436694e-01
1.489999999999999991e+00 1.620145511170070218e-01
1.500000000000000000e+00 2.076106355908308443e-01
1.510000000000000009e+00 2.449352436137473832e-01
1.520000000000000018e+00 2.723187007873992815e-01
1.530000000000000027e+00 2.892772704069140333e-01
1.540000000000000036e+00 2.943249167730533911e-01
1.550000000000000044e+00 2.887415717203139498e-01
1.560000000000000053e+00 2.712835789706410927e-01
1.570000000000000062e+00 2.446472768128436504e-01
1.580000000000000071e+00 2.084725067941846643e-01
1.590000000000000080e+00 1.657658211289790018e-01
1.600000000000000089e+00 1.175677108305678287e-01
1.610000000000000098e+00 6.645463745722843263e-02
1.620000000000000107e+00 1.434175750751898876e-02
1.630000000000000115e+00 -3.652114508050832709e-02
1.640000000000000124e+00 -8.427366676919549604e-02
1.650000000000000133e+00 -1.268253857103688875e-01
1.660000000000000142e+00 -1.632196236484754481e-01
1.669999999999999929e+00 -1.914137669870665526e-01
1.679999999999999938e+00 -2.118930557386383695e-01
1.689999999999999947e+00 -2.226965634480962131e-01
1.699999999999999956e+00 -2.255680061305896100e-01
1.709999999999999964e+00 -2.196373088145093522e-01
1.719999999999999973e+00 -2.068179663345781072e-01
1.729999999999999982e+00 -1.876254936882680302e-01
1.739999999999999991e+00 -1.639257888587269396e-01
1.750000000000000000e+00 -1.371877561648102706e-01
1.760000000000000009e+00 -1.092521469000942019e-01
1.770000000000000018e+00 -8.181106283428271619e-02
1.780000000000000027e+00 -5.678427294312622664e-02
1.790000000000000036e+00 -3.530554715516727449e-02
1.800000000000000044e+00 -1.945683423679605423e-02
1.810000000000000053e+00 -9.307833948400187976e-03
1.820000000000000062e+00 -6.771222165611136268e-03
1.830000000000000071e+00 -1.106504521314611612e-02
1.840000000000000080e+00 -2.314461908744502167e-02
1.850000000000000089e+00 -4.196589548543776943e-02
1.860000000000000098e+00 -6.727308870727063961e-02
1.870000000000000107e+00 -9.788522590598641715e-02
1.880000000000000115e+00 -1.325964639556996005e-01
1.890000000000000124e+00 -1.700785382128390810e-01
1.900000000000000133e+00 -2.087441768748052873e-01
1.910000000000000142e+00 -2.470274070805078270e-01
1.919999999999999929e+00 -2.836592670401637539e-01
1.929999999999999938e+00 -3.167513640718122581e-01
1.939999999999999947e+00 -3.458068559491695448e-01
1.949999999999999956e+00 -3.691300014974664423e-01
1.959999999999999964e+00 -3.867613434001943573e-01
1.969999999999999973e+00 -3.977862266804331748e-01
1.979999999999999982e+00 -4.025511961957927154e-01
1.989999999999999991e+00 -4.011736587845092794e-01
2.000000000000000000e+00 -3.942060979889898120e-01
2.010000000000000231e+00 -3.826698414191311293e-01
2.020000000000000018e+00 -3.673302621223861752e-01
2.030000000000000249e+00 -3.496717444249115014e-01
2.040000000000000036e+00 -3.307441019655048553e-01
2.049999999999999822e+00 -3.119020947446879966e-01
2.060000000000000053e+00 -2.944844402748528767e-01
2.069999999999999840e+00 -2.793049070106684018e-01
2.080000000000000071e+00 -2.675666066876338789e-01
2.089999999999999858e+00 -2.595951295379998469e-01
2.100000000000000089e+00 -2.559581313830542326e-01
2.109999999999999876e+00 -2.565870372376157227e-01
2.120000000000000107e+00 -2.611738924670136131e-01
2.129999999999999893e+00 -2.692604111511501808e-01
2.140000000000000124e+00 -2.797840376012296071e-01
2.149999999999999911e+00 -2.918008672373697543e-01
2.160000000000000142e+00 -3.039509980919910537e-01
2.169999999999999929e+00 -3.146507482353202989e-01
2.180000000000000160e+00 -3.227826358964915321e-01
2.189999999999999947e+00 -3.263868956716217129e-01
2.200000000000000178e+00 -3.247084754454561684e-01
2.209999999999999964e+00 -3.160783581124405606e-01
2.220000000000000195e+00 -2.999836973639321003e-01
2.229999999999999982e+00 -2.756775018654343268e-01
2.240000000000000213e+00 -2.428372434963209370e-01
2.250000000000000000e+00 -2.019812005771864927e-01
2.260000000000000231e+00 -1.530524423724167749e-01
2.270000000000000018e+00 -9.776868113166509167e-02
2.280000000000000249e+00 -3.656730657936251017e-02
2.290000000000000036e+00 2.816044618726061544e-02
2.300000000000000266e+00 9.505180887570593984e-02
2.310000000000000053e+00 1.618089276333061488e-01
2.319999999999999840e+00 2.262094370494935891e-01
2.330000000000000071e+00 2.862790932053890791e-01
2.339999999999999858e+00 3.397008623669052763e-01
2.350000000000000089e+00 3.846200970525057716e-01
2.359999999999999876e+00 4.195447004133962543e-01
2.370000000000000107e+00 4.425674240143298577e-01
2.379999999999999893e+00 4.537362095055414990e-01
2.390000000000000124e+00 4.510585705610695717e-01
2.399999999999999911e+00 4.364327856590361487e-01
2.410000000000000142e+00 4.079568385963946997e-01
2.419999999999999929e+00 3.688526881193365248e-01
2.430000000000000160e+00 3.186643624347713089e-01
2.439999999999999947e+00 2.604607669312214435e-01
2.450000000000000178e+00 1.954956243765360313e-01
2.459999999999999964e+00 1.265527368085604398e-01
2.470000000000000195e+00 5.589731440506311155e-02
2.479999999999999982e+00 -1.377571325168211458e-02
2.490000000000000213e+00 -8.019861020793536688e-02
2.500000000000000000e+00 -1.405082427960533675e-01
2.510000000000000231e+00 -1.934500946452100412e-01
2.520000000000000018e+00 -2.358031548833564583e-01
2.530000000000000249e+00 -2.679334353933405799e-01
2.540000000000000036e+00 -2.867340767319431771e-01
2.550000000000000266e+00 -2.937322978161909792e-01
2.560000000000000053e+00 -2.872194387539824811e-01
2.569999999999999840e+00 -2.688748884603903710e-01
2.580000000000000071e+00 -2.388246718074945041e-01
2.589999999999999858e+00 -1.987525668796111256e-01
2.600000000000000089e+00 -1.503156548700865514e-01
2.609999999999999876e+00 -9.526301496342162722e-02
2.620000000000000107e+00 -3.605620128385293027e-02
2.629999999999999893e+00 2.528951865760402373e-02
2.640000000000000124e+00 8.646144390431123594e-02
2.649999999999999911e+00 1.449480382325513406e-01
2.660000000000000142e+00 1.993317835049354392e-01
2.669999999999999929e+00 2.470322614944358008e-01
2.680000000000000160e+00 2.874448091568815866e-01
2.689999999999999947e+00 3.187445906224752323e-01
2.700000000000000178e+00 3.407722014319533588e-01
2.709999999999999964e+00 3.530199514914850734e-01
2.720000000000000195e+00 3.555673463110352039e-01
2.729999999999999982e+00 3.493276275569204281e-01
2.740000000000000213e+00 3.345806209918271157e-01
2.750000000000000000e+00 3.133223622077099257e-01
2.760000000000000231e+00 2.861403665520520501e-01
2.770000000000000018e+00 2.554173061362909336e-01
2.780000000000000249e+00 2.223118681215097980e-01
2.790000000000000036e+00 1.888075689467204887e-01
2.800000000000000266e+00 1.564917670989267595e-01
2.810000000000000053e+00 1.267248016066638006e-01
2.819999999999999840e+00 1.008849993859581989e-01
2.830000000000000071e+00 7.988786441413790740e-02
2.839999999999999858e+00 6.431960427531815960e-02
2.850000000000000089e+00 5.477176523952276277e-02
2.859999999999999876e+00 5.078166873783601654e-02
2.870000000000000107e+00 5.262306000116393628e-02
2.879999999999999893e+00 5.891287482387864288e-02
2.890000000000000124e+00 6.949393783799101554e-02
2.899999999999999911e+00 8.257913337089288486e-02
2.910000000000000142e+00 9.725734967126864472e-02
2.919999999999999929e+00 1.119854890134591718e-01
2.930000000000000160e+00 1.253881935464032926e-01
2.939999999999999947e+00 1.361858728111463857e-01
2.950000000000000178e+00 1.431609334393344479e-01
2.959999999999999964e+00 1.452142844152548851e-01
2.970000000000000195e+00 1.418455543424711474e-01
2.979999999999999982e+00 1.320959967112654010e-01
2.990000000000000213e+00 1.164925675332179333e-01
3.000000000000000000e+00 9.428224944455566858e-02
3.010000000000000231e+00 6.692038694739887994e-02
3.020000000000000018e+00 3.423112545236392523e-02
3.030000000000000249e+00 -1.984854877117627966e-03
3.040000000000000036e+00 -4.096188662509839262e-02
3.050000000000000266e+00 -8.103321117111869643e-02
3.060000000000000053e+00 -1.208042520706111844e-01
3.070000000000000284e+00 -1.586818014686282863e-01
3.080000000000000071e+00 -1.932799254101659203e-01
3.089999999999999858e+00 -2.229660215192800776e-01
3.100000000000000089e+00 -2.470059515039621512e-01
3.109999999999999876e+00 -2.636468265481016759e-01
3.120000000000000107e+00 -2.732752879724283934e-01
3.129999999999999893e+00 -2.740427692065471876e-01
3.140000000000000124e+00 -2.673798983161238541e-01
3.149999999999999911e+00 -2.522180169782556325e-01
3.160000000000000142e+00 -2.301568611230909167e-01
3.169999999999999929e+00 -2.013195907396666540e-01
3.180000000000000160e+00 -1.672428072582442804e-01
3.189999999999999947e+00 -1.290145739701961114e-01
3.200000000000000178e+00 -8.814266523083486016e-02
3.209999999999999964e+00 -4.614176962800790871e-02
3.220000000000000195e+00 -4.609707806426751112e-03
3.229999999999999982e+00 3.516767187665747335e-02
3.240000000000000213e+00 7.137605768946922447e-02
3.250000000000000000e+00 1.034896027435431853e-01
3.260000000000000231e+00 1.296189171697611775e-01
3.270000000000000018e+00 1.499981006320369181e-01
3.280000000000000249e+00 1.633491893231726333e-01
3.290000000000000036e+00 1.701831302654381595e-01
3.300000000000000266e+00 1.702116830108621748e-01
3.310000000000000053e+00 1.640731104501375326e-01
3.320000000000000284e+00 1.524417472776075644e-01
3.330000000000000071e+00 1.360533225693651149e-01
3.339999999999999858e+00 1.162210481377951715e-01
3.350000000000000089e+00 9.384281004959693639e-02
3.359999999999999876e+00 7.035468846001489973e-02
3.370000000000000107e+00 4.691747191028294850e-02
3.379999999999999893e+00 2.459649049690973421e-02
3.390000000000000124e+00 4.685173025631564521e-03
3.399999999999999911e+00 -1.225722663023196164e-02
3.410000000000000142e+00 -2.524391832047047715e-02
3.419999999999999929e+00 -3.405766541679688952e-02
3.430000000000000160e+00 -3.837517697858125465e-02
3.439999999999999947e+00 -3.821235971014311228e-02
3.450000000000000178e+00 -3.400343068954413128e-02
3.459999999999999964e+00 -2.597408806358228461e-02
3.470000000000000195e+00 -1.513641956904732133e-02
3.479999999999999982e+00 -1.980024730650206503e-03
3.490000000000000213e+00 1.229896253969656010e-02
3.500000000000000000e+00 2.684942234228099300e-02
3.510000000000000231e+00 4.070308731696101884e-02
3.520000000000000018e+00 5.282526293658662553e-02
3.530000000000000249e+00 6.256624543539772432e-02
3.540000000000000036e+00 6.911819549547429387e-02
3.550000000000000266e+00 7.207063145776704260e-02
3.560000000000000053e+00 7.118505335996704042e-02
3.570000000000000284e+00 6.625061760340787698e-02
3.580000000000000071e+00 5.772180917237525188e-02
3.589999999999999858e+00 4.562240073319150796e-02
3.600000000000000089e+00 3.096562224237658922e-02
3.609999999999999876e+00 1.411910634507042295e-02
3.620000000000000107e+00 -3.709637777137255593e-03
3.629999999999999893e+00 -2.164902232711700403e-02
3.640000000000000124e+00 -3.867321142246565868e-02
3.649999999999999911e+00 -5.366193106727255857e-02
3.660000000000000142e+00 -6.575397218498439667e-02
3.669999999999999929e+00 -7.403875594908126967e-02
3.680000000000000160e+00 -7.774559167794700687e-02
3.689999999999999947e+00 -7.657174379097500538e-02
3.700000000000000178e+00 -6.980316144299196501e-02
3.709999999999999964e+00 -5.795368280655002063e-02
3.720000000000000195e+00 -4.041423186658004568e-02
3.729999999999999982e+00 -1.841990751626544978e-02
3.740000000000000213e+00 8.249713000878528685e-03
3.750000000000000000e+00 3.811109806769899522e-02
3.760000000000000231e+00 7.066498270757184952e-02
3.770000000000000018e+00 1.045969047433579491e-01
3.780000000000000249e+00 1.389056994271005430e-01
3.790000000000000036e+00 1.723941027770276024e-01
3.800000000000000266e+00 2.040320714992135132e-01
3.810000000000000053e+00 2.326493018401651625e-01
3.820000000000000284e+00 2.576565279972881650e-01
3.830000000000000071e+00 2.778426399895268517e-01
3.839999999999999858e+00 2.933963706062351351e-01
3.850000000000000089e+00 3.030716203189084967e-01
3.859999999999999876e+00 3.077948977640751482e-01
