# [DEFAULT]
# # input and output specifications
# dataformat = QA
# outputtype = gr
# 
# # PDF calculation setup
# mode = xray
# wavelength = 
# composition = Cl4.0Cr1.0Na1.0
# bgscale = 1.0
# rpoly = 0.9
# qmaxinst = 28
# qmin = 0.0
# qmax = 22
# rmin = 0.0
# rmax = 30.0
# rstep = 0.01
# 
# # End of config --------------------------------------------------------------
# 
# #### start data
# #S 1
# #L r(Å)  G(Å$^$)
# 
0.000000000000000000e+00 0.000000000000000000e+00
1.000000000000000021e-02 -3.847695892243823898e-03
2.000000000000000042e-02 -7.752283908884319806e-03
2.999999999999999889e-02 -1.177130469404446753e-02
4.000000000000000083e-02 -1.591044084046311369e-02
5.000000000000000278e-02 -2.016133844242783829e-02
5.999999999999999778e-02 -2.445126197334906992e-02
7.000000000000000666e-02 -2.867201754435157873e-02
8.000000000000000167e-02 -3.264786254752310296e-02
8.999999999999999667e-02 -3.620199889459385645e-02
1.000000000000000056e-01 -3.903212266369410210e-02
1.100000000000000006e-01 -4.099084677942484850e-02
1.199999999999999956e-01 -4.163654877552681183e-02
1.300000000000000044e-01 -4.095857191786060614e-02
1.400000000000000133e-01 -3.847949044538872404e-02
1.499999999999999944e-01 -3.431980172778145016e-02
1.600000000000000033e-01 -2.818789614101871108e-02
1.700000000000000122e-01 -2.027328425446987131e-02
1.799999999999999933e-01 -1.060363692050399730e-02
1.900000000000000022e-01 5.368188954201747430e-04
2.000000000000000111e-01 1.279470762081877377e-02
2.099999999999999922e-01 2.573256317324345080e-02
2.200000000000000011e-01 3.879746137515497489e-02
2.300000000000000100e-01 5.131502102331908510e-02
2.399999999999999911e-01 6.277820534381792217e-02
2.500000000000000000e-01 7.219466732500477713e-02
2.600000000000000089e-01 7.930448206651942444e-02
2.700000000000000178e-01 8.308431378418912328e-02
2.800000000000000266e-01 8.341798527970636923e-02
2.899999999999999800e-01 7.960949094326003062e-02
2.999999999999999889e-01 7.164792538823734624e-02
3.099999999999999978e-01 5.942390003562213890e-02
3.200000000000000067e-01 4.305042198040078677e-02
3.300000000000000155e-01 2.308939305560554767e-02
3.400000000000000244e-01 -1.229683171955729681e-04
3.500000000000000333e-01 -2.549989041213792176e-02
3.599999999999999867e-01 -5.230407924781577123e-02
3.699999999999999956e-01 -7.928421541620936375e-02
3.800000000000000044e-01 -1.051332640499584303e-01
3.900000000000000133e-01 -1.287767441004004365e-01
4.000000000000000222e-01 -1.486110012165699212e-01
4.100000000000000311e-01 -1.637115739671835823e-01
4.199999999999999845e-01 -1.727291403840305606e-01
4.299999999999999933e-01 -1.747858230725126971e-01
4.400000000000000022e-01 -1.693251493194306012e-01
4.500000000000000111e-01 -1.554807038595169832e-01
4.600000000000000200e-01 -1.338330661633616581e-01
4.700000000000000289e-01 -1.036232119721013645e-01
4.799999999999999822e-01 -6.659197039262587658e-02
4.899999999999999911e-01 -2.234434132774526169e-02
5.000000000000000000e-01 2.670886290487512263e-02
5.100000000000000089e-01 7.980369128819775337e-02
5.200000000000000178e-01 1.347176733718385422e-01
5.300000000000000266e-01 1.896747649561059124e-01
5.400000000000000355e-01 2.425323971284192859e-01
5.500000000000000444e-01 2.912408714828647049e-01
5.600000000000000533e-01 3.335343627611174200e-01
5.700000000000000622e-01 3.679645485909366354e-01
5.799999999999999600e-01 3.919636762436832234e-01
5.899999999999999689e-01 4.054721831401985610e-01
5.999999999999999778e-01 4.055769212658485445e-01
6.099999999999999867e-01 3.938727172476837457e-01
6.199999999999999956e-01 3.679296204396841352e-01
6.300000000000000044e-01 3.301713645383796969e-01
6.400000000000000133e-01 2.798669890345372169e-01
6.500000000000000222e-01 2.194085705536897857e-01
6.600000000000000311e-01 1.499178028733907930e-01
6.700000000000000400e-01 7.380725671051735493e-02
6.800000000000000488e-01 -6.542766600646357511e-03
6.900000000000000577e-01 -8.846020676082483325e-02
7.000000000000000666e-01 -1.692921012505020917e-01
7.099999999999999645e-01 -2.457792478749582232e-01
7.199999999999999734e-01 -3.161502026988990965e-01
7.299999999999999822e-01 -3.762807506792615886e-01
7.399999999999999911e-01 -4.258771532551096084e-01
7.500000000000000000e-01 -4.612139933807018477e-01
7.600000000000000089e-01 -4.826222285970658832e-01
7.700000000000000178e-01 -4.879578488047295881e-01
7.800000000000000266e-01 -4.778081620168662114e-01
7.900000000000000355e-01 -4.521628103287896883e-01
8.000000000000000444e-01 -4.117561584914131712e-01
8.100000000000000533e-01 -3.586437866579936240e-01
8.200000000000000622e-01 -2.938546168258454050e-01
8.300000000000000711e-01 -2.208396818205577428e-01
8.399999999999999689e-01 -1.412787731103525846e-01
8.499999999999999778e-01 -5.888724432810118342e-02
8.599999999999999867e-01 2.355349139616146753e-02
8.699999999999999956e-01 1.031035821823294840e-01
8.800000000000000044e-01 1.764021595884081861e-01
8.900000000000000133e-01 2.412746000462207552e-01
9.000000000000000222e-01 2.949608642952645798e-01
9.100000000000000311e-01 3.356877614987770486e-01
9.200000000000000400e-01 3.623412817143994991e-01
9.300000000000000488e-01 3.733250709326363936e-01
9.400000000000000577e-01 3.697146496835012064e-01
9.500000000000000666e-01 3.501071020008856283e-01
9.599999999999999645e-01 3.176707490365626718e-01
9.699999999999999734e-01 2.714785698301292460e-01
9.799999999999999822e-01 2.157887507481649758e-01
9.899999999999999911e-01 1.514574249366657521e-01
1.000000000000000000e+00 8.216426484870485714e-02
1.010000000000000009e+00 1.029825130827560775e-02
1.020000000000000018e+00 -6.096199981491230713e-02
1.030000000000000027e+00 -1.288480312280169682e-01
1.040000000000000036e+00 -1.904128410662179471e-01
1.050000000000000044e+00 -2.437275101499876140e-01
1.060000000000000053e+00 -2.858365916393890149e-01
1.070000000000000062e+00 -3.166020671383706353e-01
1.080000000000000071e+00 -3.329919128032338693e-01
1.090000000000000080e+00 -3.368812313759247945e-01
1.100000000000000089e+00 -3.259919673075279967e-01
1.110000000000000098e+00 -3.031936202264412517e-01
1.120000000000000107e+00 -2.681406089863395126e-01
1.130000000000000115e+00 -2.236434837180444057e-01
1.140000000000000124e+00 -1.712304050708956527e-01
1.150000000000000133e+00 -1.136412269766122196e-01
1.159999999999999920e+00 -5.343123678219218603e-02
1.169999999999999929e+00 6.552303647475873905e-03
1.179999999999999938e+00 6.386516709335884889e-02
1.189999999999999947e+00 1.153184544390841310e-01
1.199999999999999956e+00 1.597054124203138303e-01
1.209999999999999964e+00 1.933569241366138725e-01
1.219999999999999973e+00 2.167133930263236696e-01
1.229999999999999982e+00 2.269239102946398468e-01
1.239999999999999991e+00 2.250772605165721196e-01
1.250000000000000000e+00 2.100900976530236386e-01
1.260000000000000009e+00 1.833345847629210268e-01
1.270000000000000018e+00 1.456474060882442245e-01
1.280000000000000027e+00 9.861341013659080668e-02
1.290000000000000036e+00 4.452636745389004780e-02
1.300000000000000044e+00 -1.467386094520615157e-02
1.310000000000000053e+00 -7.615943740372074777e-02
1.320000000000000062e+00 -1.373734776050292705e-01
1.330000000000000071e+00 -1.960130211946969070e-01
1.340000000000000080e+00 -2.489015825064763709e-01
1.350000000000000089e+00 -2.947707132021793464e-01
1.360000000000000098e+00 -3.307502306745238596e-01
1.370000000000000107e+00 -3.562219439834588552e-01
1.380000000000000115e+00 -3.695891528640248835e-01
1.390000000000000124e+00 -3.705994781345744449e-01
1.400000000000000133e+00 -3.594416066768554852e-01
1.409999999999999920e+00 -3.361277766782327925e-01
1.419999999999999929e+00 -3.025785224920432004e-01
1.429999999999999938e+00 -2.591841901086028854e-01
1.439999999999999947e+00 -2.089998818455446328e-01
1.449999999999999956e+00 -1.530768562855469306e-01
1.459999999999999964e+00 -9.459961485498789846e-02
1.469999999999999973e+00 -3.567395367265688289e-02
1.479999999999999982e+00 2.125355287935195084e-02
1.489999999999999991e+00 7.368825067323916955e-02
1.500000000000000000e+00 1.197172523762768531e-01
1.510000000000000009e+00 1.574752588931392916e-01
1.520000000000000018e+00 1.853362566457768534e-01
1.530000000000000027e+00 2.028387766039204676e-01
1.540000000000000036e+00 2.085143864450985651e-01
1.550000000000000044e+00 2.036301609876651764e-01
1.560000000000000053e+00 1.869342473678403671e-01
1.570000000000000062e+00 1.610872579851103381e-01
1.580000000000000071e+00 1.256948207603309220e-01
1.590000000000000080e+00 8.372646654177881564e-02
1.600000000000000089e+00 3.617681025046638743e-02
1.610000000000000098e+00 -1.440437352717997138e-02
1.620000000000000107e+00 -6.613395260136037401e-02
1.630000000000000115e+00 -1.167731929062651164e-01
1.640000000000000124e+00 -1.644591542868089618e-01
1.650000000000000133e+00 -2.070907645854032086e-01
1.660000000000000142e+00 -2.436699160408511700e-01
1.669999999999999929e+00 -2.721129021361422540e-01
1.679999999999999938e+00 -2.928412458885585878e-01
1.689999999999999947e+00 -3.038121459671387914e-01
1.699999999999999956e+00 -3.067103388395777674e-01
1.709999999999999964e+00 -3.005575236506727310e-01
1.719999999999999973e+00 -2.872223743661280748e-01
1.729999999999999982e+00 -2.671250908521985434e-01
1.739999999999999991e+00 -2.420996611055045433e-01
1.750000000000000000e+00 -2.135729719943205707e-01
1.760000000000000009e+00 -1.833689219998004827e-01
1.770000000000000018e+00 -1.532146102454237380e-01
1.780000000000000027e+00 -1.250370139082617738e-01
1.790000000000000036e+00 -1.000776712429077148e-01
1.800000000000000044e+00 -8.046648035386118336e-02
1.810000000000000053e+00 -6.641758236310554842e-02
1.820000000000000062e+00 -5.995393391202133437e-02
1.830000000000000071e+00 -6.042554960094034117e-02
1.840000000000000080e+00 -6.893881520552341824e-02
1.850000000000000089e+00 -8.455421425068400387e-02
1.860000000000000098e+00 -1.071452993114378749e-01
1.870000000000000107e+00 -1.356093316610030020e-01
1.880000000000000115e+00 -1.687840883297518357e-01
1.890000000000000124e+00 -2.053849959053717644e-01
1.900000000000000133e+00 -2.437462805406826472e-01
1.910000000000000142e+00 -2.822856712347850405e-01
1.919999999999999929e+00 -3.195438713117024765e-01
1.929999999999999938e+00 -3.535109475877022955e-01
1.939999999999999947e+00 -3.834459776575040446e-01
1.949999999999999956e+00 -4.073884740295120599e-01
1.959999999999999964e+00 -4.251348885029955227e-01
1.969999999999999973e+00 -4.354246090539300451e-01
1.979999999999999982e+00 -4.383438445878322098e-01
1.989999999999999991e+00 -4.337052130059737554e-01
2.000000000000000000e+00 -4.217631181909654581e-01
2.010000000000000231e+00 -4.034076353293477024e-01
2.020000000000000018e+00 -3.790614814032309265e-01
2.030000000000000249e+00 -3.503545509701035399e-01
2.040000000000000036e+00 -3.179751125822135593e-01
2.049999999999999822e+00 -2.837089199561675379e-01
2.060000000000000053e+00 -2.486698295819297633e-01
2.069999999999999840e+00 -2.142316887891626553e-01
2.080000000000000071e+00 -1.817030467551206119e-01
2.089999999999999858e+00 -1.519597955855167826e-01
2.100000000000000089e+00 -1.259794952393491207e-01
2.109999999999999876e+00 -1.042757108191839227e-01
2.120000000000000107e+00 -8.708811329688956326e-02
2.129999999999999893e+00 -7.464158496139704224e-02
2.140000000000000124e+00 -6.632901197404425520e-02
2.149999999999999911e+00 -6.206338633129751536e-02
2.160000000000000142e+00 -6.060461412367701417e-02
2.169999999999999929e+00 -6.144488522289251464e-02
2.180000000000000160e+00 -6.318030618563716394e-02
2.189999999999999947e+00 -6.475134591292026898e-02
2.200000000000000178e+00 -6.502437261100529886e-02
2.209999999999999964e+00 -6.275071951701420570e-02
2.220000000000000195e+00 -5.703828908259846869e-02
2.229999999999999982e+00 -4.699309102891259526e-02
2.240000000000000213e+00 -3.190360978802483927e-02
2.250000000000000000e+00 -1.164646729894967120e-02
2.260000000000000231e+00 1.430793531672166531e-02
2.270000000000000018e+00 4.516401953212907661e-02
2.280000000000000249e+00 8.116349368627394367e-02
2.290000000000000036e+00 1.208128889503761738e-01
2.300000000000000266e+00 1.637329354349606192e-01
2.310000000000000053e+00 2.082820671801916823e-01
2.319999999999999840e+00 2.533182719014605566e-01
2.330000000000000071e+00 2.973573715765221448e-01
2.339999999999999858e+00 3.389174624807489988e-01
2.350000000000000089e+00 3.765795960031761980e-01
2.359999999999999876e+00 4.091544245943398161e-01
2.370000000000000107e+00 4.351788169706454212e-01
2.379999999999999893e+00 4.543201361168683339e-01
2.390000000000000124e+00 4.650233975088881033e-01
2.399999999999999911e+00 4.681485938587880979e-01
2.410000000000000142e+00 4.621222889504137954e-01
2.419999999999999929e+00 4.487677286722530079e-01
2.430000000000000160e+00 4.274033136697306112e-01
2.439999999999999947e+00 3.998597165033325740e-01
2.450000000000000178e+00 3.666226069058143300e-01
2.459999999999999964e+00 3.293793399092392327e-01
2.470000000000000195e+00 2.894189087762873425e-01
2.479999999999999982e+00 2.483591627869248253e-01
2.490000000000000213e+00 2.076818037105493397e-01
2.500000000000000000e+00 1.690652241396366495e-01
2.510000000000000231e+00 1.335269565389859692e-01
2.520000000000000018e+00 1.029100837402830149e-01
2.530000000000000249e+00 7.732351736722199720e-02
2.540000000000000036e+00 5.853163651061610295e-02
2.550000000000000266e+00 4.589282127538632516e-02
2.560000000000000053e+00 4.037919035355064246e-02
2.569999999999999840e+00 4.113093167614659262e-02
2.580000000000000071e+00 4.805455763352530635e-02
2.589999999999999858e+00 6.017943911077919261e-02
2.600000000000000089e+00 7.651808506096353935e-02
2.609999999999999876e+00 9.597211284102445672e-02
2.620000000000000107e+00 1.171130201191545039e-01
2.629999999999999893e+00 1.386162637274435672e-01
2.640000000000000124e+00 1.592149352354391700e-01
2.649999999999999911e+00 1.772509064223595776e-01
2.660000000000000142e+00 1.920658428526466899e-01
2.669999999999999929e+00 2.020418693535292465e-01
2.680000000000000160e+00 2.070128832551614284e-01
2.689999999999999947e+00 2.059538209828614408e-01
2.700000000000000178e+00 1.989813305875149374e-01
2.709999999999999964e+00 1.859843112233425799e-01
2.720000000000000195e+00 1.672729838274235048e-01
2.729999999999999982e+00 1.436464354561476919e-01
2.740000000000000213e+00 1.156303158222797972e-01
2.750000000000000000e+00 8.462554454008416882e-02
2.760000000000000231e+00 5.148512593321250691e-02
2.770000000000000018e+00 1.769328617241132384e-02
2.780000000000000249e+00 -1.544716500762447799e-02
2.790000000000000036e+00 -4.681867438793331504e-02
2.800000000000000266e+00 -7.496111706295689736e-02
2.810000000000000053e+00 -9.912248290462617739e-02
2.819999999999999840e+00 -1.182103077745486480e-01
2.830000000000000071e+00 -1.316988666556475340e-01
2.839999999999999858e+00 -1.392747349785041222e-01
2.850000000000000089e+00 -1.405593139045108186e-01
2.859999999999999876e+00 -1.361663077549390699e-01
2.870000000000000107e+00 -1.258831405755426736e-01
2.879999999999999893e+00 -1.110991476186418969e-01
2.890000000000000124e+00 -9.188257435903253445e-02
2.899999999999999911e+00 -6.992993883400720756e-02
2.910000000000000142e+00 -4.593518232938109680e-02
2.919999999999999929e+00 -2.130715970479730645e-02
2.930000000000000160e+00 2.843726534926744806e-03
2.939999999999999947e+00 2.539130994540672592e-02
2.950000000000000178e+00 4.531643405918209938e-02
2.959999999999999964e+00 6.167877272157026858e-02
2.970000000000000195e+00 7.400532033262682829e-02
2.979999999999999982e+00 8.148046393965728551e-02
2.990000000000000213e+00 8.443321238438913912e-02
3.000000000000000000e+00 8.219442830987620796e-02
3.010000000000000231e+00 7.583039190967731658e-02
3.020000000000000018e+00 6.508515771749004419e-02
3.030000000000000249e+00 5.130720683175531843e-02
3.040000000000000036e+00 3.494882805880650950e-02
3.050000000000000266e+00 1.724033492448209456e-02
3.060000000000000053e+00 -8.756585169318832282e-04
3.070000000000000284e+00 -1.826454563318914356e-02
3.080000000000000071e+00 -3.395587915854292316e-02
3.089999999999999858e+00 -4.684700244085922283e-02
3.100000000000000089e+00 -5.639908651460261851e-02
3.109999999999999876e+00 -6.149945805815105332e-02
3.120000000000000107e+00 -6.236290690739382941e-02
3.129999999999999893e+00 -5.789928127064253305e-02
3.140000000000000124e+00 -4.902691818963426929e-02
3.149999999999999911e+00 -3.522116452873685910e-02
3.160000000000000142e+00 -1.755291054144300297e-02
3.169999999999999929e+00 3.714824398826991649e-03
3.180000000000000160e+00 2.750746141438245931e-02
3.189999999999999947e+00 5.297912985035932443e-02
3.200000000000000178e+00 7.903065413056195587e-02
3.209999999999999964e+00 1.046451043579981754e-01
3.220000000000000195e+00 1.286284409730893696e-01
3.229999999999999982e+00 1.502648548280090812e-01
3.240000000000000213e+00 1.682045761633808867e-01
3.250000000000000000e+00 1.823748392528349027e-01
3.260000000000000231e+00 1.914429769956739469e-01
3.270000000000000018e+00 1.958901373328230666e-01
3.280000000000000249e+00 1.949520274819696031e-01
3.290000000000000036e+00 1.892644529006890231e-01
3.300000000000000266e+00 1.788565107548711619e-01
3.310000000000000053e+00 1.644424894575939322e-01
3.320000000000000284e+00 1.467333658943346664e-01
3.330000000000000071e+00 1.265341165544106861e-01
3.339999999999999858e+00 1.049101684477168478e-01
3.350000000000000089e+00 8.282908384612208685e-02
3.359999999999999876e+00 6.126308557751461437e-02
3.370000000000000107e+00 4.142154160649667155e-02
3.379999999999999893e+00 2.383583209397121400e-02
3.390000000000000124e+00 9.703714497091116969e-03
3.399999999999999911e+00 -8.291635123897693428e-04
3.410000000000000142e+00 -6.990658820197897735e-03
3.419999999999999929e+00 -8.861187065531470411e-03
3.430000000000000160e+00 -6.343387890819209007e-03
3.439999999999999947e+00 3.247718405007323384e-04
3.450000000000000178e+00 1.056359582987762349e-02
3.459999999999999964e+00 2.396474024281102996e-02
3.470000000000000195e+00 3.950121869580280887e-02
3.479999999999999982e+00 5.651585934299637598e-02
3.490000000000000213e+00 7.392391580097844306e-02
3.500000000000000000e+00 9.073749337473129006e-02
3.510000000000000231e+00 1.061516591498010975e-01
3.520000000000000018e+00 1.190768248300857896e-01
3.530000000000000249e+00 1.289904203074798139e-01
3.540000000000000036e+00 1.350982479787041779e-01
3.550000000000000266e+00 1.370633360299751691e-01
3.560000000000000053e+00 1.346905301555716139e-01
3.570000000000000284e+00 1.277792581040742559e-01
3.580000000000000071e+00 1.168296545211158222e-01
3.589999999999999858e+00 1.018040604783877479e-01
3.600000000000000089e+00 8.375985063450791523e-02
3.609999999999999876e+00 6.292107301839104661e-02
3.620000000000000107e+00 4.054078231441177876e-02
3.629999999999999893e+00 1.731278538143196655e-02
3.640000000000000124e+00 -5.721430953353468657e-03
3.649999999999999911e+00 -2.759718422168522256e-02
3.660000000000000142e+00 -4.747268824502562379e-02
3.669999999999999929e+00 -6.452286744901188087e-02
3.680000000000000160e+00 -7.802652148643975105e-02
3.689999999999999947e+00 -8.765784556888579770e-02
3.700000000000000178e+00 -9.277098792624284551e-02
3.709999999999999964e+00 -9.373206892924040856e-02
3.720000000000000195e+00 -8.999604710703791588e-02
3.729999999999999982e+00 -8.255068303313839451e-02
3.740000000000000213e+00 -7.117668960660852862e-02
3.750000000000000000e+00 -5.708787076056845433e-02
3.760000000000000231e+00 -4.066534000282665678e-02
3.770000000000000018e+00 -2.298768884786361183e-02
3.780000000000000249e+00 -4.856841679566516537e-03
3.790000000000000036e+00 1.275390538760374538e-02
3.800000000000000266e+00 2.901378940087546293e-02
3.810000000000000053e+00 4.299178557255708272e-02
3.820000000000000284e+00 5.421445013044687289e-02
3.830000000000000071e+00 6.174902794646289911e-02
3.839999999999999858e+00 6.574986631552143246e-02
3.850000000000000089e+00 6.530071884606854227e-02
3.859999999999999876e+00 6.114859015481820259e-02
