# [DEFAULT]
# # input and output specifications
# dataformat = QA
# outputtype = gr
# 
# # PDF calculation setup
# mode = xray
# wavelength = 
# composition = Cl4.0Cr1.0Na1.0
# bgscale = 1.0
# rpoly = 0.9
# qmaxinst = 28
# qmin = 0.0
# qmax = 22
# rmin = 0.0
# rmax = 30.0
# rstep = 0.01
# 
# # End of config --------------------------------------------------------------
# 
# #### start data
# #S 1
# #L r(Å)  G(Å$^$)
# 
0.000000000000000000e+00 0.000000000000000000e+00
1.000000000000000021e-02 -2.351553136596420089e-03
2.000000000000000042e-02 -4.848416190679152513e-03
2.999999999999999889e-02 -7.655357836870760845e-03
4.000000000000000083e-02 -1.083253150405295503e-02
5.000000000000000278e-02 -1.445630727936242019e-02
5.999999999999999778e-02 -1.848130959830135422e-02
7.000000000000000666e-02 -2.282583670477305454e-02
8.000000000000000167e-02 -2.731827742512602658e-02
8.999999999999999667e-02 -3.173790621538000178e-02
1.000000000000000056e-01 -3.576079824562884701e-02
1.100000000000000006e-01 -3.914096032644490825e-02
1.199999999999999956e-01 -4.138086502023037572e-02
1.300000000000000044e-01 -4.235543641099447087e-02
1.400000000000000133e-01 -4.148861459468672352e-02
1.499999999999999944e-01 -3.880947570142525421e-02
1.600000000000000033e-01 -3.391275447949493316e-02
1.700000000000000122e-01 -2.692433818306594340e-02
1.799999999999999933e-01 -1.779058338059836750e-02
1.900000000000000022e-01 -6.755217797471520236e-03
2.000000000000000111e-01 5.840462818726499181e-03
2.099999999999999922e-01 1.957610974451875693e-02
2.200000000000000011e-01 3.383091727369106488e-02
2.300000000000000100e-01 4.791588188056261632e-02
2.399999999999999911e-01 6.119692013866488700e-02
2.500000000000000000e-01 7.262006979218611769e-02
2.600000000000000089e-01 8.178530867365314816e-02
2.700000000000000178e-01 8.755054175841590902e-02
2.800000000000000266e-01 8.968616904381626620e-02
2.899999999999999800e-01 8.736335479946009952e-02
2.999999999999999889e-01 8.048095233518429148e-02
3.099999999999999978e-01 6.884271068333838728e-02
3.200000000000000067e-01 5.249227173026965731e-02
3.300000000000000155e-01 3.199530605059322519e-02
3.400000000000000244e-01 7.645965110169412014e-03
3.500000000000000333e-01 -1.936201745715275882e-02
3.599999999999999867e-01 -4.828701931476291065e-02
3.699999999999999956e-01 -7.769908346687502687e-02
3.800000000000000044e-01 -1.061997713831844548e-01
3.900000000000000133e-01 -1.325271545978338739e-01
4.000000000000000222e-01 -1.549023475332892141e-01
4.100000000000000311e-01 -1.722278035972442944e-01
4.199999999999999845e-01 -1.829612707130016669e-01
4.299999999999999933e-01 -1.860579441332473050e-01
4.400000000000000022e-01 -1.808362844183234175e-01
4.500000000000000111e-01 -1.662650377276682634e-01
4.600000000000000200e-01 -1.429380911420298494e-01
4.700000000000000289e-01 -1.099451593933922361e-01
4.799999999999999822e-01 -6.920922875478562053e-02
4.899999999999999911e-01 -2.023265718882474862e-02
5.000000000000000000e-01 3.427063598293706576e-02
5.100000000000000089e-01 9.346717729235948235e-02
5.200000000000000178e-01 1.548284136139751743e-01
5.300000000000000266e-01 2.163389763656400622e-01
5.400000000000000355e-01 2.755367617585113282e-01
5.500000000000000444e-01 3.300594901410007220e-01
5.600000000000000533e-01 3.772797799657500728e-01
5.700000000000000622e-01 4.154961404561257621e-01
5.799999999999999600e-01 4.417073708579521973e-01
5.899999999999999689e-01 4.557954904205036017e-01
5.999999999999999778e-01 4.543289534247756389e-01
6.099999999999999867e-01 4.391032624734150791e-01
6.199999999999999956e-01 4.072161300359182778e-01
6.300000000000000044e-01 3.614358451003610306e-01
6.400000000000000133e-01 3.008239884652728624e-01
6.500000000000000222e-01 2.281206825047543130e-01
6.600000000000000311e-01 1.445631743632458388e-01
6.700000000000000400e-01 5.292194246168207411e-02
6.800000000000000488e-01 -4.405143330732685242e-02
6.900000000000000577e-01 -1.432755156049811407e-01
7.000000000000000666e-01 -2.416155872879148236e-01
7.099999999999999645e-01 -3.352866537800842650e-01
7.199999999999999734e-01 -4.221192706378937287e-01
7.299999999999999822e-01 -4.972794965348726892e-01
7.399999999999999911e-01 -5.602870807416082677e-01
7.500000000000000000e-01 -6.066979776307314109e-01
7.600000000000000089e-01 -6.367621082277818978e-01
7.700000000000000178e-01 -6.478229970148431383e-01
7.800000000000000266e-01 -6.404187520629625041e-01
7.900000000000000355e-01 -6.143771627812167901e-01
8.000000000000000444e-01 -5.703781596152300848e-01
8.100000000000000533e-01 -5.107178283780070549e-01
8.200000000000000622e-01 -4.363724699532634532e-01
8.300000000000000711e-01 -3.513836433633439338e-01
8.399999999999999689e-01 -2.574314639971744256e-01
8.499999999999999778e-01 -1.590031917410129336e-01
8.599999999999999867e-01 -5.908042948973431241e-02
8.699999999999999956e-01 3.869364791610184484e-02
8.800000000000000044e-01 1.305251970182940147e-01
8.900000000000000133e-01 2.136866549542959237e-01
9.000000000000000222e-01 2.849191133757759675e-01
9.100000000000000311e-01 3.419823565933737819e-01
9.200000000000000400e-01 3.834032066265032346e-01
9.300000000000000488e-01 4.071461197725873005e-01
9.400000000000000577e-01 4.142224324813315595e-01
9.500000000000000666e-01 4.027884936264614635e-01
9.599999999999999645e-01 3.763135281328073845e-01
9.699999999999999734e-01 3.334406417717258875e-01
9.799999999999999822e-01 2.789931605822558724e-01
9.899999999999999911e-01 2.136731044402509494e-01
1.000000000000000000e+00 1.416907413538069926e-01
1.010000000000000009e+00 6.560228752449902279e-02
1.020000000000000018e+00 -1.094059548190119344e-02
1.030000000000000027e+00 -8.480321398264351052e-02
1.040000000000000036e+00 -1.525990623749571284e-01
1.050000000000000044e+00 -2.120046369007405340e-01
1.060000000000000053e+00 -2.596198977951054698e-01
1.070000000000000062e+00 -2.950541200603832293e-01
1.080000000000000071e+00 -3.147951028081056313e-01
1.090000000000000080e+00 -3.207085671360687673e-01
1.100000000000000089e+00 -3.100738930210348299e-01
1.110000000000000098e+00 -2.859324056841447970e-01
1.120000000000000107e+00 -2.477058544985654420e-01
1.130000000000000115e+00 -1.984247856697618495e-01
1.140000000000000124e+00 -1.396525906382965199e-01
1.150000000000000133e+00 -7.436974883939614922e-02
1.159999999999999920e+00 -5.385799174612786178e-03
1.169999999999999929e+00 6.418526238496186087e-02
1.179999999999999938e+00 1.315395964570438281e-01
1.189999999999999947e+00 1.931682261219259955e-01
1.199999999999999956e+00 2.475454882896676312e-01
1.209999999999999964e+00 2.905974263149390668e-01
1.219999999999999973e+00 3.225903990692312040e-01
1.229999999999999982e+00 3.402738617074263505e-01
1.239999999999999991e+00 3.446713420549248896e-01
1.250000000000000000e+00 3.344325832270038101e-01
1.260000000000000009e+00 3.109216293055446778e-01
1.270000000000000018e+00 2.749189212373548963e-01
1.280000000000000027e+00 2.280302287703273867e-01
1.290000000000000036e+00 1.727122230512171952e-01
1.300000000000000044e+00 1.109525926591041212e-01
1.310000000000000053e+00 4.590378056035528814e-02
1.320000000000000062e+00 -1.978238223160484754e-02
1.330000000000000071e+00 -8.342684649669857011e-02
1.340000000000000080e+00 -1.416650726706491503e-01
1.350000000000000089e+00 -1.929206526468653371e-01
1.360000000000000098e+00 -2.340687224165801661e-01
1.370000000000000107e+00 -2.642745574952371501e-01
1.380000000000000115e+00 -2.817191309917420616e-01
1.390000000000000124e+00 -2.859931232280191193e-01
1.400000000000000133e+00 -2.771845897693800409e-01
1.409999999999999920e+00 -2.551851873417644856e-01
1.419999999999999929e+00 -2.219788468706046791e-01
1.429999999999999938e+00 -1.778657291904078008e-01
1.439999999999999947e+00 -1.261158747567096838e-01
1.449999999999999956e+00 -6.773338976967417657e-02
1.459999999999999964e+00 -6.191698881161914955e-03
1.469999999999999973e+00 5.633263658762022175e-02
1.479999999999999982e+00 1.171475608047564121e-01
1.489999999999999991e+00 1.735967322364490861e-01
1.500000000000000000e+00 2.235662553587649815e-01
1.510000000000000009e+00 2.650203928777973839e-01
1.520000000000000018e+00 2.961618330547237110e-01
1.530000000000000027e+00 3.164269639351430796e-01
1.540000000000000036e+00 3.241925700381719233e-01
1.550000000000000044e+00 3.207409485388675319e-01
1.560000000000000053e+00 3.046787253222926761e-01
1.570000000000000062e+00 2.787979240102012590e-01
1.580000000000000071e+00 2.426167489547994272e-01
1.590000000000000080e+00 1.992836476817981262e-01
1.600000000000000089e+00 1.498093806618818191e-01
1.610000000000000098e+00 9.690669181633237983e-02
1.620000000000000107e+00 4.255641700494727786e-02
1.630000000000000115e+00 -1.085940120302745712e-02
1.640000000000000124e+00 -6.135578314448898035e-02
1.650000000000000133e+00 -1.067035385773399681e-01
1.660000000000000142e+00 -1.458164309495122990e-01
1.669999999999999929e+00 -1.764932415544795685e-01
1.679999999999999938e+00 -1.991426425115067067e-01
1.689999999999999947e+00 -2.116168759754566142e-01
1.699999999999999956e+00 -2.156634834278680357e-01
1.709999999999999964e+00 -2.102595105877373971e-01
1.719999999999999973e+00 -1.973615641732169301e-01
1.729999999999999982e+00 -1.774207838685464556e-01
1.739999999999999991e+00 -1.523681445292036640e-01
1.750000000000000000e+00 -1.237130253796450141e-01
1.760000000000000009e+00 -9.338254143251566164e-02
1.770000000000000018e+00 -6.319504131548156489e-02
1.780000000000000027e+00 -3.518977835738729826e-02
1.790000000000000036e+00 -1.066278869666353879e-02
1.800000000000000044e+00 8.131779194008464245e-03
1.810000000000000053e+00 2.098915827311585366e-02
1.820000000000000062e+00 2.577113939554965399e-02
1.830000000000000071e+00 2.318271405332452892e-02
1.840000000000000080e+00 1.205633083856933775e-02
1.850000000000000089e+00 -6.608207818811219839e-03
1.860000000000000098e+00 -3.268171216196610190e-02
1.870000000000000107e+00 -6.500860637820447818e-02
1.880000000000000115e+00 -1.023784275702672719e-01
1.890000000000000124e+00 -1.434696190364547763e-01
1.900000000000000133e+00 -1.865519894678035195e-01
1.910000000000000142e+00 -2.300298586724953687e-01
1.919999999999999929e+00 -2.723900206410571623e-01
1.929999999999999938e+00 -3.116438188316987268e-01
1.939999999999999947e+00 -3.470243414411989247e-01
1.949999999999999956e+00 -3.766251594173709027e-01
1.959999999999999964e+00 -4.002581470090744165e-01
1.969999999999999973e+00 -4.167429997113632489e-01
1.979999999999999982e+00 -4.262201444777071191e-01
1.989999999999999991e+00 -4.285856697751137534e-01
2.000000000000000000e+00 -4.241844487582763779e-01
2.010000000000000231e+00 -4.139530625172491707e-01
2.020000000000000018e+00 -3.984353460045991779e-01
2.030000000000000249e+00 -3.792274212772090425e-01
2.040000000000000036e+00 -3.571534380957394617e-01
2.049999999999999822e+00 -3.338670377700950764e-01
2.060000000000000053e+00 -3.105700020652322202e-01
2.069999999999999840e+00 -2.884461098287933178e-01
2.080000000000000071e+00 -2.687628438522566832e-01
2.089999999999999858e+00 -2.521890027217114638e-01
2.100000000000000089e+00 -2.395306236467138195e-01
2.109999999999999876e+00 -2.310558818798698621e-01
2.120000000000000107e+00 -2.267629842898027936e-01
2.129999999999999893e+00 -2.265592689403931881e-01
2.140000000000000124e+00 -2.296252749482838862e-01
2.149999999999999911e+00 -2.354467300050376855e-01
2.160000000000000142e+00 -2.427182898441460901e-01
2.169999999999999929e+00 -2.503677794084559483e-01
2.180000000000000160e+00 -2.571149361715209247e-01
2.189999999999999947e+00 -2.613983010933406681e-01
2.200000000000000178e+00 -2.622441593123749914e-01
2.209999999999999964e+00 -2.581304472316188203e-01
2.220000000000000195e+00 -2.483155177819643400e-01
2.229999999999999982e+00 -2.319257965364001917e-01
2.240000000000000213e+00 -2.083932363459840287e-01
2.250000000000000000e+00 -1.778950216721902899e-01
2.260000000000000231e+00 -1.400734996925072640e-01
2.270000000000000018e+00 -9.621482099053671466e-02
2.280000000000000249e+00 -4.634095359064912406e-02
2.290000000000000036e+00 7.526559578186266600e-03
2.300000000000000266e+00 6.457954097806981042e-02
2.310000000000000053e+00 1.227511562862483863e-01
2.319999999999999840e+00 1.803724873485427205e-01
2.330000000000000071e+00 2.356312982363874264e-01
2.339999999999999858e+00 2.865926534667188053e-01
2.350000000000000089e+00 3.315483637534515360e-01
2.359999999999999876e+00 3.690945432756133071e-01
2.370000000000000107e+00 3.974797312614992695e-01
2.379999999999999893e+00 4.164969595235591959e-01
2.390000000000000124e+00 4.243033931304573958e-01
2.399999999999999911e+00 4.222372207834844127e-01
2.410000000000000142e+00 4.084822257393463940e-01
2.419999999999999929e+00 3.855545290412590864e-01
2.430000000000000160e+00 3.528171066263486866e-01
2.439999999999999947e+00 3.127295003886570446e-01
2.450000000000000178e+00 2.661227062428470624e-01
2.459999999999999964e+00 2.152453567624779962e-01
2.470000000000000195e+00 1.618713090614823935e-01
2.479999999999999982e+00 1.081666596694433602e-01
2.490000000000000213e+00 5.603380717250852627e-02
2.500000000000000000e+00 7.747018448041468122e-03
2.510000000000000231e+00 -3.551007507750942455e-02
2.520000000000000018e+00 -7.120855848215291994e-02
2.530000000000000249e+00 -9.942419961498763503e-02
2.540000000000000036e+00 -1.177255521767465174e-01
2.550000000000000266e+00 -1.271562918647901608e-01
2.560000000000000053e+00 -1.263759188176370174e-01
2.569999999999999840e+00 -1.166332710164167674e-01
2.580000000000000071e+00 -9.803722981574201911e-02
2.589999999999999858e+00 -7.191005334285170691e-02
2.600000000000000089e+00 -3.957410147304787906e-02
2.609999999999999876e+00 -2.460273009348461909e-03
2.620000000000000107e+00 3.748875178648696654e-02
2.629999999999999893e+00 7.858734859087179725e-02
2.640000000000000124e+00 1.190563269047252848e-01
2.649999999999999911e+00 1.567910298108282641e-01
2.660000000000000142e+00 1.907742452920243581e-01
2.669999999999999929e+00 2.188978467628703573e-01
2.680000000000000160e+00 2.408000953331006777e-01
2.689999999999999947e+00 2.550657910505799708e-01
2.700000000000000178e+00 2.617012363148462084e-01
2.709999999999999964e+00 2.604234092965115321e-01
2.720000000000000195e+00 2.514627688716566389e-01
2.729999999999999982e+00 2.357088774556585220e-01
2.740000000000000213e+00 2.136129816182513741e-01
2.750000000000000000e+00 1.868988269303747951e-01
2.760000000000000231e+00 1.563529058561274609e-01
2.770000000000000018e+00 1.239118315737363363e-01
2.780000000000000249e+00 9.088319700614516661e-02
2.790000000000000036e+00 5.880172980753317624e-02
2.800000000000000266e+00 2.924966769910626596e-02
2.810000000000000053e+00 3.265898933070859010e-03
2.819999999999999840e+00 -1.789187692509449507e-02
2.830000000000000071e+00 -3.351928925459678882e-02
2.839999999999999858e+00 -4.318512396346693705e-02
2.850000000000000089e+00 -4.642096989426724996e-02
2.859999999999999876e+00 -4.381839386734491526e-02
2.870000000000000107e+00 -3.515685258924423906e-02
2.879999999999999893e+00 -2.189450332249131409e-02
2.890000000000000124e+00 -4.180979899044418371e-03
2.899999999999999911e+00 1.617333294384601036e-02
2.910000000000000142e+00 3.830875984536343676e-02
2.919999999999999929e+00 6.069865882216499836e-02
2.930000000000000160e+00 8.203875949015654312e-02
2.939999999999999947e+00 1.010868609816666791e-01
2.950000000000000178e+00 1.166811312588653116e-01
2.959999999999999964e+00 1.277666470698122503e-01
2.970000000000000195e+00 1.338473507806246243e-01
2.979999999999999982e+00 1.340004587619670062e-01
2.990000000000000213e+00 1.286848942832757026e-01
3.000000000000000000e+00 1.171528874692461808e-01
3.010000000000000231e+00 1.007286926724302867e-01
3.020000000000000018e+00 7.917082014544712942e-02
3.030000000000000249e+00 5.412358474928710694e-02
3.040000000000000036e+00 2.619825474666515053e-02
3.050000000000000266e+00 -3.103559976453654570e-03
3.060000000000000053e+00 -3.259064259174006967e-02
3.070000000000000284e+00 -6.086241188801578411e-02
3.080000000000000071e+00 -8.671388577708963319e-02
3.089999999999999858e+00 -1.087559681874716022e-01
3.100000000000000089e+00 -1.263340128507471904e-01
3.109999999999999876e+00 -1.380089120356452481e-01
3.120000000000000107e+00 -1.440771848796800758e-01
3.129999999999999893e+00 -1.430804749002913823e-01
3.140000000000000124e+00 -1.362008310185325033e-01
3.149999999999999911e+00 -1.226689575352106765e-01
3.160000000000000142e+00 -1.038360814041705688e-01
3.169999999999999929e+00 -7.993110086234496425e-02
3.180000000000000160e+00 -5.228193910658241600e-02
3.189999999999999947e+00 -2.188628530890917440e-02
3.200000000000000178e+00 9.924633570102769226e-03
3.209999999999999964e+00 4.187431689597782836e-02
3.220000000000000195e+00 7.253550435655120587e-02
3.229999999999999982e+00 1.009276269645085905e-01
3.240000000000000213e+00 1.254385436049644253e-01
3.250000000000000000e+00 1.458199737354778092e-01
3.260000000000000231e+00 1.604479489212927712e-01
3.270000000000000018e+00 1.697446227826499288e-01
3.280000000000000249e+00 1.727114377236757259e-01
3.290000000000000036e+00 1.699839257422608441e-01
3.300000000000000266e+00 1.614837625581260205e-01
3.310000000000000053e+00 1.479509956400422155e-01
3.320000000000000284e+00 1.301366842707498694e-01
3.330000000000000071e+00 1.088827399433366233e-01
3.339999999999999858e+00 8.541828057206757308e-02
3.350000000000000089e+00 6.076094881742941795e-02
3.359999999999999876e+00 3.611264797318149145e-02
3.370000000000000107e+00 1.275868329169783585e-02
3.379999999999999893e+00 -8.549727616417465703e-03
3.390000000000000124e+00 -2.649100882940205390e-02
3.399999999999999911e+00 -4.076902464398188264e-02
3.410000000000000142e+00 -5.047939845385984725e-02
3.419999999999999929e+00 -5.560686644445184124e-02
3.430000000000000160e+00 -5.596766212361754811e-02
3.439999999999999947e+00 -5.173835729162729047e-02
3.450000000000000178e+00 -4.348850673679115902e-02
3.459999999999999964e+00 -3.158526438485566995e-02
3.470000000000000195e+00 -1.712191458226430818e-02
3.479999999999999982e+00 -7.280846154253915736e-04
3.490000000000000213e+00 1.639760571992151389e-02
3.500000000000000000e+00 3.327248584633771267e-02
3.510000000000000231e+00 4.898179401798545551e-02
3.520000000000000018e+00 6.241247249189748464e-02
3.530000000000000249e+00 7.297319214796783859e-02
3.540000000000000036e+00 7.984382463775360761e-02
3.550000000000000266e+00 8.266257566918497335e-02
3.560000000000000053e+00 8.123193906557464594e-02
3.570000000000000284e+00 7.537444776211815745e-02
3.580000000000000071e+00 6.561652667282721896e-02
3.589999999999999858e+00 5.199981838083706648e-02
3.600000000000000089e+00 3.561689133459638307e-02
3.609999999999999876e+00 1.683919130848850199e-02
3.620000000000000107e+00 -3.060386322947148199e-03
3.629999999999999893e+00 -2.320920485092540023e-02
3.640000000000000124e+00 -4.254762701216803500e-02
3.649999999999999911e+00 -5.995830066555540155e-02
3.660000000000000142e+00 -7.457251999726376146e-02
3.669999999999999929e+00 -8.548857950541689787e-02
3.680000000000000160e+00 -9.194828480010161509e-02
3.689999999999999947e+00 -9.365784790109318858e-02
3.700000000000000178e+00 -8.993146167433120619e-02
3.709999999999999964e+00 -8.128098169297522102e-02
3.720000000000000195e+00 -6.713744980579491872e-02
3.729999999999999982e+00 -4.871435654250100972e-02
3.740000000000000213e+00 -2.583100148661923029e-02
3.750000000000000000e+00 6.516946636876664277e-05
3.760000000000000231e+00 2.845974905970815455e-02
3.770000000000000018e+00 5.807628103412539738e-02
3.780000000000000249e+00 8.793086059750825079e-02
3.790000000000000036e+00 1.168694808276548036e-01
3.800000000000000266e+00 1.439055678823835671e-01
3.810000000000000053e+00 1.679243729763595372e-01
3.820000000000000284e+00 1.883906206936641070e-01
3.830000000000000071e+00 2.041714558836554283e-01
3.839999999999999858e+00 2.154973128247307246e-01
3.850000000000000089e+00 2.212352591649069389e-01
3.859999999999999876e+00 2.223265586781572878e-01
