# [DEFAULT]
# # input and output specifications
# dataformat = QA
# outputtype = gr
# 
# # PDF calculation setup
# mode = xray
# wavelength = 
# composition = Cl4.0Cr1.0Na1.0
# bgscale = 1.0
# rpoly = 0.9
# qmaxinst = 28
# qmin = 0.0
# qmax = 22
# rmin = 0.0
# rmax = 30.0
# rstep = 0.01
# 
# # End of config --------------------------------------------------------------
# 
# #### start data
# #S 1
# #L r(Å)  G(Å$^$)
# 
0.000000000000000000e+00 0.000000000000000000e+00
1.000000000000000021e-02 -3.011899730153173773e-03
2.000000000000000042e-02 -6.136939977161842870e-03
2.999999999999999889e-02 -9.500586592240543166e-03
4.000000000000000083e-02 -1.314243295483679894e-02
5.000000000000000278e-02 -1.710643798531687881e-02
5.999999999999999778e-02 -2.133499870481696259e-02
7.000000000000000666e-02 -2.573363177821179695e-02
8.000000000000000167e-02 -3.012476321816749680e-02
8.999999999999999667e-02 -3.429996219487487646e-02
1.000000000000000056e-01 -3.793602908263334766e-02
1.100000000000000006e-01 -4.082084704233509415e-02
1.199999999999999956e-01 -4.246732004768152824e-02
1.300000000000000044e-01 -4.279375423967041875e-02
1.400000000000000133e-01 -4.125011542977513601e-02
1.499999999999999944e-01 -3.790349396550965477e-02
1.600000000000000033e-01 -3.238521401090231622e-02
1.700000000000000122e-01 -2.485048976837931495e-02
1.799999999999999933e-01 -1.527799317089406986e-02
1.900000000000000022e-01 -3.934529109589256918e-03
2.000000000000000111e-01 8.824727595722113224e-03
2.099999999999999922e-01 2.256129218520418547e-02
2.200000000000000011e-01 3.666650718813262155e-02
2.300000000000000100e-01 5.043947512708069764e-02
2.399999999999999911e-01 6.328278830782567421e-02
2.500000000000000000e-01 7.414108098340822794e-02
2.600000000000000089e-01 8.266297680056787500e-02
2.700000000000000178e-01 8.772741936210767810e-02
2.800000000000000266e-01 8.914746524425019858e-02
2.899999999999999800e-01 8.613050261735236135e-02
2.999999999999999889e-01 7.861288905691476980e-02
3.099999999999999978e-01 6.643278777799094259e-02
3.200000000000000067e-01 4.966823616955991227e-02
3.300000000000000155e-01 2.890127545551009897e-02
3.400000000000000244e-01 4.458188457878463525e-03
3.500000000000000333e-01 -2.247937376611759686e-02
3.599999999999999867e-01 -5.114208746127366784e-02
3.699999999999999956e-01 -8.013899543147300075e-02
3.800000000000000044e-01 -1.080619014559810187e-01
3.900000000000000133e-01 -1.336978752403652215e-01
4.000000000000000222e-01 -1.552867822922778251e-01
4.100000000000000311e-01 -1.717783695488444007e-01
4.199999999999999845e-01 -1.816691525468809854e-01
4.299999999999999933e-01 -1.839611490680936601e-01
4.400000000000000022e-01 -1.780132990502973078e-01
4.500000000000000111e-01 -1.628432898361214243e-01
4.600000000000000200e-01 -1.390676064556840841e-01
4.700000000000000289e-01 -1.058284024984740279e-01
4.799999999999999822e-01 -6.503835832730596456e-02
4.899999999999999911e-01 -1.625356169996851341e-02
5.000000000000000000e-01 3.785337287062007228e-02
5.100000000000000089e-01 9.642333680163299447e-02
5.200000000000000178e-01 1.569742018152008589e-01
5.300000000000000266e-01 2.175030507229404331e-01
5.400000000000000355e-01 2.755967771093239538e-01
5.500000000000000444e-01 3.289345442951114862e-01
5.600000000000000533e-01 3.749426076032718602e-01
5.700000000000000622e-01 4.119708399144122457e-01
5.799999999999999600e-01 4.370806553455113819e-01
5.899999999999999689e-01 4.501915742245404251e-01
5.999999999999999778e-01 4.479473823115443509e-01
6.099999999999999867e-01 4.321495444885780080e-01
6.199999999999999956e-01 3.999710660798365680e-01
6.300000000000000044e-01 3.541603567019013799e-01
6.400000000000000133e-01 2.938243607340610408e-01
6.500000000000000222e-01 2.216748386935062931e-01
6.600000000000000311e-01 1.389502007419676777e-01
6.700000000000000400e-01 4.838674927281575583e-02
6.800000000000000488e-01 -4.730390407573989431e-02
6.900000000000000577e-01 -1.450827141284341537e-01
7.000000000000000666e-01 -2.418796386318694536e-01
7.099999999999999645e-01 -3.339665523996511176e-01
7.199999999999999734e-01 -4.192375634363979531e-01
7.299999999999999822e-01 -4.929373629131195700e-01
7.399999999999999911e-01 -5.546264978305128768e-01
7.500000000000000000e-01 -5.999446939372871102e-01
7.600000000000000089e-01 -6.291634597200680412e-01
7.700000000000000178e-01 -6.396877413662344081e-01
7.800000000000000266e-01 -6.320660190428877279e-01
7.900000000000000355e-01 -6.061445258078235199e-01
8.000000000000000444e-01 -5.626062858089388996e-01
8.100000000000000533e-01 -5.037159117859419943e-01
8.200000000000000622e-01 -4.304438438879608086e-01
8.300000000000000711e-01 -3.467590270051639223e-01
8.399999999999999689e-01 -2.543195925204635444e-01
8.499999999999999778e-01 -1.575228456097092500e-01
8.599999999999999867e-01 -5.929876694399455195e-02
8.699999999999999956e-01 3.678817512173816751e-02
8.800000000000000044e-01 1.270184401388146367e-01
8.900000000000000133e-01 2.087262936974693672e-01
9.000000000000000222e-01 2.787220663872088666e-01
9.100000000000000311e-01 3.348175337126201301e-01
9.200000000000000400e-01 3.755753420886517313e-01
9.300000000000000488e-01 3.990069121704383215e-01
9.400000000000000577e-01 4.061082188829913120e-01
9.500000000000000666e-01 3.950770350026476807e-01
9.599999999999999645e-01 3.693138958958397389e-01
9.699999999999999734e-01 3.274906680056253183e-01
9.799999999999999822e-01 2.743304525871976818e-01
9.899999999999999911e-01 2.105177293667733762e-01
1.000000000000000000e+00 1.401720598517443850e-01
1.010000000000000009e+00 6.579022870234947640e-02
1.020000000000000018e+00 -9.057993783882440156e-03
1.030000000000000027e+00 -8.131061246189486003e-02
1.040000000000000036e+00 -1.476602203636085686e-01
1.050000000000000044e+00 -2.058368059406714412e-01
1.060000000000000053e+00 -2.525223506183506550e-01
1.070000000000000062e+00 -2.873332666654119238e-01
1.080000000000000071e+00 -3.068437169923606822e-01
1.090000000000000080e+00 -3.128718207935065054e-01
1.100000000000000089e+00 -3.027642102858898454e-01
1.110000000000000098e+00 -2.794858921669237661e-01
1.120000000000000107e+00 -2.424722348032992969e-01
1.130000000000000115e+00 -1.946772759814489606e-01
1.140000000000000124e+00 -1.376237164278324987e-01
1.150000000000000133e+00 -7.421540957548766748e-02
1.159999999999999920e+00 -7.189097795860410756e-03
1.169999999999999929e+00 6.042342632096500687e-02
1.179999999999999938e+00 1.258911789444987217e-01
1.189999999999999947e+00 1.858004000208902662e-01
1.199999999999999956e+00 2.386647863815206660e-01
1.209999999999999964e+00 2.805236739971215254e-01
1.219999999999999973e+00 3.116354894663169173e-01
1.229999999999999982e+00 3.288424686288070053e-01
1.239999999999999991e+00 3.331413751515990840e-01
1.250000000000000000e+00 3.232236419878020683e-01
1.260000000000000009e+00 3.004186388614661918e-01
1.270000000000000018e+00 2.654892950555107767e-01
1.280000000000000027e+00 2.200011163876738063e-01
1.290000000000000036e+00 1.663444031288245639e-01
1.300000000000000044e+00 1.064566250320085894e-01
1.310000000000000053e+00 4.340031414409731975e-02
1.320000000000000062e+00 -2.024157624702792313e-02
1.330000000000000071e+00 -8.187122328015174200e-02
1.340000000000000080e+00 -1.382156925530594882e-01
1.350000000000000089e+00 -1.877512459723332250e-01
1.360000000000000098e+00 -2.274434124383846456e-01
1.370000000000000107e+00 -2.564897238145941172e-01
1.380000000000000115e+00 -2.731296077694129742e-01
1.390000000000000124e+00 -2.769748835339911897e-01
1.400000000000000133e+00 -2.681200475828402485e-01
1.409999999999999920e+00 -2.464709904406572616e-01
1.419999999999999929e+00 -2.139622030120785501e-01
1.429999999999999938e+00 -1.708986963500495060e-01
1.439999999999999947e+00 -1.204583109298511256e-01
1.449999999999999956e+00 -6.363210669967861444e-02
1.459999999999999964e+00 -3.788316744065427667e-03
1.469999999999999973e+00 5.694780143963219798e-02
1.479999999999999982e+00 1.159692954306738993e-01
1.489999999999999991e+00 1.706939626955978062e-01
1.500000000000000000e+00 2.190778912152509528e-01
1.510000000000000009e+00 2.591509668346842488e-01
1.520000000000000018e+00 2.891788557240157487e-01
1.530000000000000027e+00 3.086276117986757050e-01
1.540000000000000036e+00 3.159356361474258690e-01
1.550000000000000044e+00 3.123626200980474943e-01
1.560000000000000053e+00 2.965757853262706578e-01
1.570000000000000062e+00 2.712959352749171327e-01
1.580000000000000071e+00 2.360799350692549536e-01
1.590000000000000080e+00 1.939882386896915056e-01
1.600000000000000089e+00 1.460233083136675269e-01
1.610000000000000098e+00 9.481973361491990993e-02
1.620000000000000107e+00 4.231109700161292397e-02
1.630000000000000115e+00 -9.190908675833572503e-03
1.640000000000000124e+00 -5.776307578900866102e-02
1.650000000000000133e+00 -1.012445371847962849e-01
1.660000000000000142e+00 -1.385985115401669465e-01
1.669999999999999929e+00 -1.676962624178887640e-01
1.679999999999999938e+00 -1.889610775272195231e-01
1.689999999999999947e+00 -2.003253343030573785e-01
1.699999999999999956e+00 -2.035127606320659976e-01
1.709999999999999964e+00 -1.975590793037498571e-01
1.719999999999999973e+00 -1.843867712823412386e-01
1.729999999999999982e+00 -1.644665103688488228e-01
1.739999999999999991e+00 -1.396946505756791190e-01
1.750000000000000000e+00 -1.115619153369771799e-01
1.760000000000000009e+00 -8.196280146086416807e-02
1.770000000000000018e+00 -5.267063609368775878e-02
1.780000000000000027e+00 -2.569242274535678272e-02
1.790000000000000036e+00 -2.270664709793191599e-03
1.800000000000000044e+00 1.537611958180497632e-02
1.810000000000000053e+00 2.708698770245666909e-02
1.820000000000000062e+00 3.076460836820616579e-02
1.830000000000000071e+00 2.713855908189909474e-02
1.840000000000000080e+00 1.507725828800367263e-02
1.850000000000000089e+00 -4.408648798284998255e-03
1.860000000000000098e+00 -3.117032199424498926e-02
1.870000000000000107e+00 -6.404855255129381086e-02
1.880000000000000115e+00 -1.018342002153960202e-01
1.890000000000000124e+00 -1.432051340625855596e-01
1.900000000000000133e+00 -1.864508280420981157e-01
1.910000000000000142e+00 -2.299762677647966269e-01
1.919999999999999929e+00 -2.722985043686965700e-01
1.929999999999999938e+00 -3.114303987883043634e-01
1.939999999999999947e+00 -3.466349034945982455e-01
1.949999999999999956e+00 -3.760119966187812079e-01
1.959999999999999964e+00 -3.993922526361682879e-01
1.969999999999999973e+00 -4.156026966491427888e-01
1.979999999999999982e+00 -4.247922784251920159e-01
1.989999999999999991e+00 -4.268602318585267286e-01
2.000000000000000000e+00 -4.221516911762206448e-01
2.010000000000000231e+00 -4.116012901074702079e-01
2.020000000000000018e+00 -3.957464591401977372e-01
2.030000000000000249e+00 -3.761795169241699544e-01
2.040000000000000036e+00 -3.537131094215485438e-01
2.049999999999999822e+00 -3.300001138742034157e-01
2.060000000000000053e+00 -3.062298982105299272e-01
2.069999999999999840e+00 -2.835905738280085631e-01
2.080000000000000071e+00 -2.633442276559958550e-01
2.089999999999999858e+00 -2.461683648395820712e-01
2.100000000000000089e+00 -2.328752054618310752e-01
2.109999999999999876e+00 -2.237477522760417115e-01
2.120000000000000107e+00 -2.188011351523115045e-01
2.129999999999999893e+00 -2.179664212522715305e-01
2.140000000000000124e+00 -2.204453404007081507e-01
2.149999999999999911e+00 -2.257597751069554959e-01
2.160000000000000142e+00 -2.326187077707063677e-01
2.169999999999999929e+00 -2.400016409690053643e-01
2.180000000000000160e+00 -2.466284532343874514e-01
2.189999999999999947e+00 -2.509885509404270465e-01
2.200000000000000178e+00 -2.521031776948365888e-01
2.209999999999999964e+00 -2.484826677933856254e-01
2.220000000000000195e+00 -2.393784072742385083e-01
2.229999999999999982e+00 -2.239202036997035017e-01
2.240000000000000213e+00 -2.015302854002949673e-01
2.250000000000000000e+00 -1.723578994311415757e-01
2.260000000000000231e+00 -1.360283966194676952e-01
2.270000000000000018e+00 -9.377608395015213372e-02
2.280000000000000249e+00 -4.559051188423329792e-02
2.290000000000000036e+00 6.566125825384143758e-03
2.300000000000000266e+00 6.194264993893606325e-02
2.310000000000000053e+00 1.185231385851120561e-01
2.319999999999999840e+00 1.747110796138345856e-01
2.330000000000000071e+00 2.287378821029155962e-01
2.339999999999999858e+00 2.787336446125221467e-01
2.350000000000000089e+00 3.230334072655631772e-01
2.359999999999999876e+00 3.602674515661663524e-01
2.370000000000000107e+00 3.887318540810165146e-01
2.379999999999999893e+00 4.082061440092912274e-01
2.390000000000000124e+00 4.168992611216666422e-01
2.399999999999999911e+00 4.160827983127943219e-01
2.410000000000000142e+00 4.039900740601164997e-01
2.419999999999999929e+00 3.830351817938317804e-01
2.430000000000000160e+00 3.525878476408396689e-01
2.439999999999999947e+00 3.150131535377147518e-01
2.450000000000000178e+00 2.710990147728984945e-01
2.459999999999999964e+00 2.230084142965725602e-01
2.470000000000000195e+00 1.724432760287338273e-01
2.479999999999999982e+00 1.214844183427875035e-01
2.490000000000000213e+00 7.196333653202821590e-02
2.500000000000000000e+00 2.605901728863950495e-02
2.510000000000000231e+00 -1.508396508278408293e-02
2.520000000000000018e+00 -4.905066571321673591e-02
2.530000000000000249e+00 -7.590489179059986546e-02
2.540000000000000036e+00 -9.333382836395395787e-02
2.550000000000000266e+00 -1.023341107134348726e-01
2.560000000000000053e+00 -1.016431262321055851e-01
2.569999999999999840e+00 -9.246320698063147103e-02
2.580000000000000071e+00 -7.492080914720511409e-02
2.589999999999999858e+00 -5.029801040265634987e-02
2.600000000000000089e+00 -1.987726312389762051e-02
2.609999999999999876e+00 1.494557785194263778e-02
2.620000000000000107e+00 5.230916022842271862e-02
2.629999999999999893e+00 9.056473515340585090e-02
2.640000000000000124e+00 1.280304919748624370e-01
2.649999999999999911e+00 1.626506986911651076e-01
2.660000000000000142e+00 1.934936087829724205e-01
2.669999999999999929e+00 2.185189482606336719e-01
2.680000000000000160e+00 2.374232840054315841e-01
2.689999999999999947e+00 2.488598718938493104e-01
2.700000000000000178e+00 2.528770868978414410e-01
2.709999999999999964e+00 2.492377277507712707e-01
2.720000000000000195e+00 2.382087497537229703e-01
2.729999999999999982e+00 2.206878332184635527e-01
2.740000000000000213e+00 1.971640150653234114e-01
2.750000000000000000e+00 1.693269070675182952e-01
2.760000000000000231e+00 1.380043525820903172e-01
2.770000000000000018e+00 1.050657122002428556e-01
2.780000000000000249e+00 7.185074206589617263e-02
2.790000000000000036e+00 3.982150985214510247e-02
2.800000000000000266e+00 1.056387021750689048e-02
2.810000000000000053e+00 -1.493789005408289669e-02
2.819999999999999840e+00 -3.544599996886730470e-02
2.830000000000000071e+00 -5.029440136235465569e-02
2.839999999999999858e+00 -5.908149902453577879e-02
2.850000000000000089e+00 -6.136443933171591841e-02
2.859999999999999876e+00 -5.776218716643616302e-02
2.870000000000000107e+00 -4.807050703929079821e-02
2.879999999999999893e+00 -3.376530882688805885e-02
2.890000000000000124e+00 -1.500560924682934651e-02
2.899999999999999911e+00 6.391861190787878101e-03
2.910000000000000142e+00 2.956465682461667521e-02
2.919999999999999929e+00 5.298796880877718746e-02
2.930000000000000160e+00 7.536094740483847976e-02
2.939999999999999947e+00 9.544719455577960199e-02
2.950000000000000178e+00 1.120913549423179500e-01
2.959999999999999964e+00 1.242457561073836286e-01
2.970000000000000195e+00 1.314191482570864489e-01
2.979999999999999982e+00 1.326957592824661025e-01
2.990000000000000213e+00 1.285336494692422282e-01
3.000000000000000000e+00 1.181900394124072579e-01
3.010000000000000231e+00 1.029815109527807276e-01
3.020000000000000018e+00 8.266610855111877765e-02
3.030000000000000249e+00 5.887631825771770522e-02
3.040000000000000036e+00 3.221464829444516120e-02
3.050000000000000266e+00 4.169208630767518714e-03
3.060000000000000053e+00 -2.408357686090072808e-02
3.070000000000000284e+00 -5.115914255906005986e-02
3.080000000000000071e+00 -7.586777041449944969e-02
3.089999999999999858e+00 -9.684056103080891653e-02
3.100000000000000089e+00 -1.134319405347260362e-01
3.109999999999999876e+00 -1.242290558514244636e-01
3.120000000000000107e+00 -1.295252047019855302e-01
3.129999999999999893e+00 -1.278957482265469514e-01
3.140000000000000124e+00 -1.205073067007270543e-01
3.149999999999999911e+00 -1.066195232261092918e-01
3.160000000000000142e+00 -8.756843691443989830e-02
3.169999999999999929e+00 -6.359866361622064368e-02
3.180000000000000160e+00 -3.602761586420560880e-02
3.189999999999999947e+00 -5.853939718353419128e-03
3.200000000000000178e+00 2.559592794460874982e-02
3.209999999999999964e+00 5.705774584067487692e-02
3.220000000000000195e+00 8.710362976091218234e-02
3.229999999999999982e+00 1.147753036787596548e-01
3.240000000000000213e+00 1.384560776396990267e-01
3.250000000000000000e+00 1.579251060133063100e-01
3.260000000000000231e+00 1.715552025699115524e-01
3.270000000000000018e+00 1.797935606330430536e-01
3.280000000000000249e+00 1.816459371761476038e-01
3.290000000000000036e+00 1.777664473680687640e-01
3.300000000000000266e+00 1.680877428040961630e-01
3.310000000000000053e+00 1.533657217929555727e-01
3.320000000000000284e+00 1.343657325275215697e-01
3.330000000000000071e+00 1.119470876297297968e-01
3.339999999999999858e+00 8.735260648925763372e-02
3.350000000000000089e+00 6.162352542648499854e-02
3.359999999999999876e+00 3.596996912737321361e-02
3.370000000000000107e+00 1.171169652341837522e-02
3.379999999999999893e+00 -1.039957873666914369e-02
3.390000000000000124e+00 -2.900418484078162717e-02
3.399999999999999911e+00 -4.380560985326299034e-02
3.410000000000000142e+00 -5.386783278370418232e-02
3.419999999999999929e+00 -5.917087914535489046e-02
3.430000000000000160e+00 -5.951393470314667034e-02
3.439999999999999947e+00 -5.506307671941320508e-02
3.450000000000000178e+00 -4.639169539069926823e-02
3.459999999999999964e+00 -3.385151492712323157e-02
3.470000000000000195e+00 -1.856351154605329068e-02
3.479999999999999982e+00 -1.140884357002079803e-03
3.490000000000000213e+00 1.717009368483220569e-02
3.500000000000000000e+00 3.539167350851053773e-02
3.510000000000000231e+00 5.255565961532861208e-02
3.520000000000000018e+00 6.752852338353228234e-02
3.530000000000000249e+00 7.967020329378096677e-02
3.540000000000000036e+00 8.811971720255563911e-02
3.550000000000000266e+00 9.246568708797692215e-02
3.560000000000000053e+00 9.246464416122093799e-02
3.570000000000000284e+00 8.788168196131268539e-02
3.580000000000000071e+00 7.921075850735903590e-02
3.589999999999999858e+00 6.642168709504915614e-02
3.600000000000000089e+00 5.060636448828970124e-02
3.609999999999999876e+00 3.204622633234514850e-02
3.620000000000000107e+00 1.204865412166796455e-02
3.629999999999999893e+00 -8.589391856853418120e-03
3.640000000000000124e+00 -2.876729273646789348e-02
3.649999999999999911e+00 -4.740285921097384808e-02
3.660000000000000142e+00 -6.359017006526121452e-02
3.669999999999999929e+00 -7.641582510888798863e-02
3.680000000000000160e+00 -8.508736426894814020e-02
3.689999999999999947e+00 -8.925920597494406417e-02
3.700000000000000178e+00 -8.820832114747817476e-02
3.709999999999999964e+00 -8.237178232991325399e-02
3.720000000000000195e+00 -7.113078547198711798e-02
3.729999999999999982e+00 -5.562498451001093858e-02
3.740000000000000213e+00 -3.560195519140944842e-02
3.750000000000000000e+00 -1.245463564229617841e-02
3.760000000000000231e+00 1.338338923634271697e-02
3.770000000000000018e+00 4.067520174866589427e-02
3.780000000000000249e+00 6.850188679258348290e-02
3.790000000000000036e+00 9.574368812904854309e-02
3.800000000000000266e+00 1.214415965397606656e-01
3.810000000000000053e+00 1.445161757614620290e-01
3.820000000000000284e+00 1.644105107948603262e-01
3.830000000000000071e+00 1.800291933680496781e-01
3.839999999999999858e+00 1.915324187926929211e-01
3.850000000000000089e+00 1.978220901081123306e-01
3.859999999999999876e+00 1.997410048427365747e-01
