# [DEFAULT]
# # input and output specifications
# dataformat = QA
# outputtype = gr
# 
# # PDF calculation setup
# mode = xray
# wavelength = 
# composition = Cl4.0Cr1.0Na1.0
# bgscale = 1.0
# rpoly = 0.9
# qmaxinst = 28
# qmin = 0.0
# qmax = 22
# rmin = 0.0
# rmax = 30.0
# rstep = 0.01
# 
# # End of config --------------------------------------------------------------
# 
# #### start data
# #S 1
# #L r(Å)  G(Å$^$)
# 
0.000000000000000000e+00 0.000000000000000000e+00
1.000000000000000021e-02 -4.150351583360743432e-03
2.000000000000000042e-02 -8.362178122409587300e-03
2.999999999999999889e-02 -1.269761637399983989e-02
4.000000000000000083e-02 -1.716270972245766829e-02
5.000000000000000278e-02 -2.174823193915040656e-02
5.999999999999999778e-02 -2.637532301535767260e-02
7.000000000000000666e-02 -3.092673626028917197e-02
8.000000000000000167e-02 -3.521215609012880859e-02
8.999999999999999667e-02 -3.904029103755651126e-02
1.000000000000000056e-01 -4.208406613728232770e-02
1.100000000000000006e-01 -4.418439280895742477e-02
1.199999999999999956e-01 -4.486399137304095119e-02
1.300000000000000044e-01 -4.411215857171199572e-02
1.400000000000000133e-01 -4.141386084031470349e-02
1.499999999999999944e-01 -3.690072516374138384e-02
1.600000000000000033e-01 -3.025975066610193248e-02
1.700000000000000122e-01 -2.169781634735411593e-02
1.799999999999999933e-01 -1.124774930093315473e-02
1.900000000000000022e-01 7.803880889024770919e-04
2.000000000000000111e-01 1.400216118105424012e-02
2.099999999999999922e-01 2.794111439157374172e-02
2.200000000000000011e-01 4.199915957563251506e-02
2.300000000000000100e-01 5.544356008561616284e-02
2.399999999999999911e-01 6.772930644611159512e-02
2.500000000000000000e-01 7.778123700449482425e-02
2.600000000000000089e-01 8.532497087846499517e-02
2.700000000000000178e-01 8.925708267701204512e-02
2.800000000000000266e-01 8.946055889984462495e-02
2.899999999999999800e-01 8.519225293495044649e-02
2.999999999999999889e-01 7.645236307911554285e-02
3.099999999999999978e-01 6.313640833948182263e-02
3.200000000000000067e-01 4.538424979655330399e-02
3.300000000000000155e-01 2.381698167518719877e-02
3.400000000000000244e-01 -1.175783055516233661e-03
3.500000000000000333e-01 -2.841259790283549164e-02
3.599999999999999867e-01 -5.705951170273555056e-02
3.699999999999999956e-01 -8.576963089890250747e-02
3.800000000000000044e-01 -1.130895892219053733e-01
3.900000000000000133e-01 -1.378715027437847351e-01
4.000000000000000222e-01 -1.583544852712164552e-01
4.100000000000000311e-01 -1.735532418475403682e-01
4.199999999999999845e-01 -1.820049064240390480e-01
4.299999999999999933e-01 -1.827768836931012442e-01
4.400000000000000022e-01 -1.752892772338055516e-01
4.500000000000000111e-01 -1.586300483181082299e-01
4.600000000000000200e-01 -1.334698264595619022e-01
4.700000000000000289e-01 -9.903115423333185008e-02
4.799999999999999822e-01 -5.724700921578324692e-02
4.899999999999999911e-01 -7.766377107428737436e-03
5.000000000000000000e-01 4.675924941860706147e-02
5.100000000000000089e-01 1.054019728565950553e-01
5.200000000000000178e-01 1.657134407984812430e-01
5.300000000000000266e-01 2.256687499240220551e-01
5.400000000000000355e-01 2.828939649805639611e-01
5.500000000000000444e-01 3.350944510899341866e-01
5.600000000000000533e-01 3.797401069841849219e-01
5.700000000000000622e-01 4.152415247996692482e-01
5.799999999999999600e-01 4.387121835928422531e-01
5.899999999999999689e-01 4.501421789277071372e-01
5.999999999999999778e-01 4.462419983049416006e-01
6.099999999999999867e-01 4.288668920638775695e-01
6.199999999999999956e-01 3.952688695771134353e-01
6.300000000000000044e-01 3.482223834671726581e-01
6.400000000000000133e-01 2.869007905856159057e-01
6.500000000000000222e-01 2.140243442444941524e-01
6.600000000000000311e-01 1.308620086996693521e-01
6.700000000000000400e-01 4.014708618893007147e-02
6.800000000000000488e-01 -5.542398418500479179e-02
6.900000000000000577e-01 -1.528256780009485116e-01
7.000000000000000666e-01 -2.490432682495856143e-01
7.099999999999999645e-01 -3.403771027594392762e-01
7.199999999999999734e-01 -4.247970578059093727e-01
7.299999999999999822e-01 -4.975993043163068896e-01
7.399999999999999911e-01 -5.584147317302040614e-01
7.500000000000000000e-01 -6.029568070087083509e-01
7.600000000000000089e-01 -6.315487348128104861e-01
7.700000000000000178e-01 -6.416673962362612338e-01
7.800000000000000266e-01 -6.339007305374620982e-01
7.900000000000000355e-01 -6.081373141136002802e-01
8.000000000000000444e-01 -5.650924714512938207e-01
8.100000000000000533e-01 -5.070253456032433048e-01
8.200000000000000622e-01 -4.349318221031435172e-01
8.300000000000000711e-01 -3.527241372442786460e-01
8.399999999999999689e-01 -2.620729029912121644e-01
8.499999999999999778e-01 -1.672834930347478766e-01
8.599999999999999867e-01 -7.126453424956966098e-02
8.699999999999999956e-01 2.251411341390275114e-02
8.800000000000000044e-01 1.103953747714714745e-01
8.900000000000000133e-01 1.897970562344331868e-01
9.000000000000000222e-01 2.576101076841479376e-01
9.100000000000000311e-01 3.117261338395941883e-01
9.200000000000000400e-01 3.507734053783767014e-01
9.300000000000000488e-01 3.728476869476194389e-01
9.400000000000000577e-01 3.789658388848268222e-01
9.500000000000000666e-01 3.674195221873820527e-01
9.599999999999999645e-01 3.415664282518675599e-01
9.699999999999999734e-01 3.001805224793500093e-01
9.799999999999999822e-01 2.478903513419154492e-01
9.899999999999999911e-01 1.854357306640100345e-01
1.000000000000000000e+00 1.168452438025639750e-01
1.010000000000000009e+00 4.460648890550583667e-02
1.020000000000000018e+00 -2.779294453361988437e-02
1.030000000000000027e+00 -9.735020891663356823e-02
1.040000000000000036e+00 -1.608355767115291768e-01
1.050000000000000044e+00 -2.160609070038872759e-01
1.060000000000000053e+00 -2.597901624931623354e-01
1.070000000000000062e+00 -2.917118234341696814e-01
1.080000000000000071e+00 -3.084959522976246094e-01
1.090000000000000080e+00 -3.119969304502942520e-01
1.100000000000000089e+00 -2.996647780858854304e-01
1.110000000000000098e+00 -2.744662576448121949e-01
1.120000000000000107e+00 -2.359148601524691247e-01
1.130000000000000115e+00 -1.869548103780041270e-01
1.140000000000000124e+00 -1.291400204749985903e-01
1.150000000000000133e+00 -6.536207775406127629e-02
1.159999999999999920e+00 1.662809946851549758e-03
1.169999999999999929e+00 6.891480763480524463e-02
1.179999999999999938e+00 1.337264636130589546e-01
1.189999999999999947e+00 1.926988795447119041e-01
1.199999999999999956e+00 2.444329642906477307e-01
1.209999999999999964e+00 2.849931415109584476e-01
1.219999999999999973e+00 3.147225717099239040e-01
1.229999999999999982e+00 3.305110258581719362e-01
1.239999999999999991e+00 3.334164139209598865e-01
1.250000000000000000e+00 3.221861896721657792e-01
1.260000000000000009e+00 2.981954836085738414e-01
1.270000000000000018e+00 2.622502530873019877e-01
1.280000000000000027e+00 2.159552711626284427e-01
1.290000000000000036e+00 1.617153752620067719e-01
1.300000000000000044e+00 1.015071084827121328e-01
1.310000000000000053e+00 3.837212128374112990e-02
1.320000000000000062e+00 -2.506531666232779051e-02
1.330000000000000071e+00 -8.625808844015013521e-02
1.340000000000000080e+00 -1.419023567069374880e-01
1.350000000000000089e+00 -1.905318773530634280e-01
1.360000000000000098e+00 -2.291083304577901381e-01
1.370000000000000107e+00 -2.568756369141697027e-01
1.380000000000000115e+00 -2.720932631615509134e-01
1.390000000000000124e+00 -2.744101045444118370e-01
1.400000000000000133e+00 -2.639530106730607617e-01
1.409999999999999920e+00 -2.406600918978985260e-01
1.419999999999999929e+00 -2.064983458133123062e-01
1.429999999999999938e+00 -1.618057239809791992e-01
1.439999999999999947e+00 -1.097820037239088109e-01
1.449999999999999956e+00 -5.145725931157874022e-02
1.459999999999999964e+00 9.793074077191415289e-03
1.469999999999999973e+00 7.180628384231045602e-02
1.479999999999999982e+00 1.319737677753825278e-01
1.489999999999999991e+00 1.876864429696215864e-01
1.500000000000000000e+00 2.368980265131720719e-01
1.510000000000000009e+00 2.776275681903527248e-01
1.520000000000000018e+00 3.081343410987091858e-01
1.530000000000000027e+00 3.278922282710349800e-01
1.540000000000000036e+00 3.353286742901365747e-01
1.550000000000000044e+00 3.317297244409169732e-01
1.560000000000000053e+00 3.157494681771594314e-01
1.570000000000000062e+00 2.901485808880815975e-01
1.580000000000000071e+00 2.544793073519329152e-01
1.590000000000000080e+00 2.118433083311740406e-01
1.600000000000000089e+00 1.632569085204909620e-01
1.610000000000000098e+00 1.113909980332110777e-01
1.620000000000000107e+00 5.820798294823817387e-02
1.630000000000000115e+00 6.055943469461304296e-03
1.640000000000000124e+00 -4.310854676522928031e-02
1.650000000000000133e+00 -8.708225048338409657e-02
1.660000000000000142e+00 -1.248035654750643819e-01
1.669999999999999929e+00 -1.540900168442868590e-01
1.679999999999999938e+00 -1.753622532588494931e-01
1.689999999999999947e+00 -1.864844156826194199e-01
1.699999999999999956e+00 -1.892025143895586514e-01
1.709999999999999964e+00 -1.824959333772484538e-01
1.719999999999999973e+00 -1.683130278596691176e-01
1.729999999999999982e+00 -1.470990403301520033e-01
1.739999999999999991e+00 -1.207753699035514078e-01
1.750000000000000000e+00 -9.084357426680385317e-02
1.760000000000000009e+00 -5.922387863136522462e-02
1.770000000000000018e+00 -2.773212535691287062e-02
1.780000000000000027e+00 1.592799693597628762e-03
1.790000000000000036e+00 2.744822581180496324e-02
1.800000000000000044e+00 4.756941881581913667e-02
1.810000000000000053e+00 6.173787504479377047e-02
1.820000000000000062e+00 6.779054368026288246e-02
1.830000000000000071e+00 6.641636591773243670e-02
1.840000000000000080e+00 5.641454662501201034e-02
1.850000000000000089e+00 3.876777469387693992e-02
1.860000000000000098e+00 1.357631106524019755e-02
1.870000000000000107e+00 -1.802092689098672151e-02
1.880000000000000115e+00 -5.482379995096405001e-02
1.890000000000000124e+00 -9.552343367300122901e-02
1.900000000000000133e+00 -1.383713899551589632e-01
1.910000000000000142e+00 -1.817732969391783471e-01
1.919999999999999929e+00 -2.241691553851532792e-01
1.929999999999999938e+00 -2.635480641958093395e-01
1.939999999999999947e+00 -2.990804228827355637e-01
1.949999999999999956e+00 -3.288005709103354324e-01
1.959999999999999964e+00 -3.524565929744245540e-01
1.969999999999999973e+00 -3.687845049468831959e-01
1.979999999999999982e+00 -3.778562371741657211e-01
1.989999999999999991e+00 -3.794897792207962417e-01
2.000000000000000000e+00 -3.739517878436212084e-01
2.010000000000000231e+00 -3.621409572299657542e-01
2.020000000000000018e+00 -3.445120849541961627e-01
2.030000000000000249e+00 -3.226923629869995480e-01
2.040000000000000036e+00 -2.974137937797869391e-01
2.049999999999999822e+00 -2.704352635018359985e-01
2.060000000000000053e+00 -2.429045040048390947e-01
2.069999999999999840e+00 -2.161477066070094655e-01
2.080000000000000071e+00 -1.914672559628785575e-01
2.089999999999999858e+00 -1.696783062266273012e-01
2.100000000000000089e+00 -1.517047127061949552e-01
2.109999999999999876e+00 -1.379774404964896894e-01
2.120000000000000107e+00 -1.286503389613435633e-01
2.129999999999999893e+00 -1.238304676435403456e-01
2.140000000000000124e+00 -1.228268737171495512e-01
2.149999999999999911e+00 -1.253838734140139688e-01
2.160000000000000142e+00 -1.302262343506147557e-01
2.169999999999999929e+00 -1.366137147478496683e-01
2.180000000000000160e+00 -1.431770007138864764e-01
2.189999999999999947e+00 -1.486385840766480115e-01
2.200000000000000178e+00 -1.519128418631897903e-01
2.209999999999999964e+00 -1.516188189109023976e-01
2.220000000000000195e+00 -1.469074785387510240e-01
2.229999999999999982e+00 -1.368728503798855023e-01
2.240000000000000213e+00 -1.208412599219903238e-01
2.250000000000000000e+00 -9.880068238569421346e-02
2.260000000000000231e+00 -7.026710663896515441e-02
2.270000000000000018e+00 -3.624068993514920067e-02
2.280000000000000249e+00 3.441907279783188930e-03
2.290000000000000036e+00 4.705067702238342753e-02
2.300000000000000266e+00 9.405863237278398736e-02
2.310000000000000053e+00 1.426231833338706401e-01
2.319999999999999840e+00 1.914005166907385980e-01
2.330000000000000071e+00 2.387507564572747820e-01
2.339999999999999858e+00 2.830052661543175918e-01
2.350000000000000089e+00 3.226120620848887954e-01
2.359999999999999876e+00 3.562821494085425256e-01
2.370000000000000107e+00 3.824266392094818334e-01
2.379999999999999893e+00 4.007474830908959174e-01
2.390000000000000124e+00 4.095707436139143787e-01
2.399999999999999911e+00 4.099347878015809354e-01
2.410000000000000142e+00 4.001721709778738312e-01
2.419999999999999929e+00 3.823756108685132382e-01
2.430000000000000160e+00 3.558890985988608646e-01
2.439999999999999947e+00 3.227942817984182367e-01
2.450000000000000178e+00 2.837253875852066565e-01
2.459999999999999964e+00 2.405994200450159715e-01
2.470000000000000195e+00 1.949089982531698739e-01
2.479999999999999982e+00 1.485009889238685654e-01
2.490000000000000213e+00 1.030293462791497250e-01
2.500000000000000000e+00 6.042405583174371986e-02
2.510000000000000231e+00 2.176280599075325339e-02
2.520000000000000018e+00 -1.082196917902344090e-02
2.530000000000000249e+00 -3.731271790425080837e-02
2.540000000000000036e+00 -5.566781710823870410e-02
2.550000000000000266e+00 -6.671229600364718404e-02
2.560000000000000053e+00 -6.932901156316738367e-02
2.569999999999999840e+00 -6.455467824684360534e-02
2.580000000000000071e+00 -5.250289045483270967e-02
2.589999999999999858e+00 -3.430572361646665874e-02
2.600000000000000089e+00 -1.110337070757939221e-02
2.609999999999999876e+00 1.585108213071885833e-02
2.620000000000000107e+00 4.490860727692619347e-02
2.629999999999999893e+00 7.457659808351212172e-02
2.640000000000000124e+00 1.033803671766081456e-01
2.649999999999999911e+00 1.294580834198382491e-01
2.660000000000000142e+00 1.520190276067883151e-01
2.669999999999999929e+00 1.692340174817959786e-01
2.680000000000000160e+00 1.808755376372543355e-01
2.689999999999999947e+00 1.857641830450203202e-01
2.700000000000000178e+00 1.839928418245390385e-01
2.709999999999999964e+00 1.753990118878300808e-01
2.720000000000000195e+00 1.602861414571771503e-01
2.729999999999999982e+00 1.395152420934447912e-01
2.740000000000000213e+00 1.136150430227665653e-01
2.750000000000000000e+00 8.413837388935326012e-02
2.760000000000000231e+00 5.195577215555833434e-02
2.770000000000000018e+00 1.874154778440105529e-02
2.780000000000000249e+00 -1.414733310848620938e-02
2.790000000000000036e+00 -4.543046646520329523e-02
2.800000000000000266e+00 -7.355637677092483062e-02
2.810000000000000053e+00 -9.766402461167394966e-02
2.819999999999999840e+00 -1.165742636671250887e-01
2.830000000000000071e+00 -1.296940586070182144e-01
2.839999999999999858e+00 -1.366685700426863714e-01
2.850000000000000089e+00 -1.370849237823315581e-01
2.859999999999999876e+00 -1.315778596228152075e-01
2.870000000000000107e+00 -1.199323511002081677e-01
2.879999999999999893e+00 -1.036114092872066073e-01
2.890000000000000124e+00 -8.271912255641204748e-02
2.899999999999999911e+00 -5.904630355890621435e-02
2.910000000000000142e+00 -3.336886268841134789e-02
2.919999999999999929e+00 -7.178952197405624562e-03
2.930000000000000160e+00 1.831181775253602068e-02
2.939999999999999947e+00 4.190520953394934189e-02
2.950000000000000178e+00 6.250395737116384853e-02
2.959999999999999964e+00 7.910262929292909140e-02
2.970000000000000195e+00 9.120865867635392921e-02
2.979999999999999982e+00 9.794729338249462403e-02
2.990000000000000213e+00 9.970335011052026963e-02
3.000000000000000000e+00 9.576072965415378946e-02
3.010000000000000231e+00 8.730471443919417263e-02
3.020000000000000018e+00 7.407222985709004115e-02
3.030000000000000249e+00 5.754872551668294839e-02
3.040000000000000036e+00 3.824411960705433045e-02
3.050000000000000266e+00 1.750929907432438246e-02
3.060000000000000053e+00 -3.615124590171623319e-03
3.070000000000000284e+00 -2.388491580784750379e-02
3.080000000000000071e+00 -4.223662606363735167e-02
3.089999999999999858e+00 -5.746070557239787990e-02
3.100000000000000089e+00 -6.897320348106920906e-02
3.109999999999999876e+00 -7.555202714079212178e-02
3.120000000000000107e+00 -7.744316912015203336e-02
3.129999999999999893e+00 -7.344675815959213205e-02
3.140000000000000124e+00 -6.458014476620906053e-02
3.149999999999999911e+00 -5.026326674914818882e-02
3.160000000000000142e+00 -3.167572939219374245e-02
3.169999999999999929e+00 -9.101022977962705887e-03
3.180000000000000160e+00 1.628289754606991255e-02
3.189999999999999947e+00 4.355375548635748162e-02
3.200000000000000178e+00 7.151247917006124666e-02
3.209999999999999964e+00 9.904791660174677714e-02
3.220000000000000195e+00 1.248631084445635114e-01
3.229999999999999982e+00 1.481724949839252348e-01
3.240000000000000213e+00 1.675144655062837939e-01
3.250000000000000000e+00 1.828011549253918677e-01
3.260000000000000231e+00 1.925915869692858273e-01
3.270000000000000018e+00 1.974002791188469164e-01
3.280000000000000249e+00 1.964009878389553210e-01
3.290000000000000036e+00 1.902781193462802223e-01
3.300000000000000266e+00 1.790621379430405447e-01
3.310000000000000053e+00 1.635224476117793646e-01
3.320000000000000284e+00 1.444243263341774275e-01
3.330000000000000071e+00 1.226326716537947809e-01
3.339999999999999858e+00 9.929306149477284960e-02
3.350000000000000089e+00 7.544041658436737019e-02
3.359999999999999876e+00 5.211829634011486828e-02
3.370000000000000107e+00 3.061351753803677120e-02
3.379999999999999893e+00 1.149415087142607352e-02
3.390000000000000124e+00 -3.972448948950846673e-03
3.399999999999999911e+00 -1.563620560472362905e-02
3.410000000000000142e+00 -2.268958938058449754e-02
3.419999999999999929e+00 -2.522989557115860523e-02
3.430000000000000160e+00 -2.317020200850799030e-02
3.439999999999999947e+00 -1.678158281081987280e-02
3.450000000000000178e+00 -6.691946367364426905e-03
3.459999999999999964e+00 6.641554500781902959e-03
3.470000000000000195e+00 2.212983450464980906e-02
3.479999999999999982e+00 3.904973868129082287e-02
3.490000000000000213e+00 5.627025358167951630e-02
3.500000000000000000e+00 7.272660928129552615e-02
3.510000000000000231e+00 8.759916148657766188e-02
3.520000000000000018e+00 9.974153079904041208e-02
3.530000000000000249e+00 1.086405455369493511e-01
3.540000000000000036e+00 1.134913067091995048e-01
3.550000000000000266e+00 1.139892262775500098e-01
3.560000000000000053e+00 1.099812341460647269e-01
3.570000000000000284e+00 1.013270912312967814e-01
3.580000000000000071e+00 8.860627129270179370e-02
3.589999999999999858e+00 7.188045450255493851e-02
3.600000000000000089e+00 5.228806688472543984e-02
3.609999999999999876e+00 3.020544792280084948e-02
3.620000000000000107e+00 6.935069161350197395e-03
3.629999999999999893e+00 -1.665504910448544623e-02
3.640000000000000124e+00 -3.949603620462362186e-02
3.649999999999999911e+00 -6.048254296495406135e-02
3.660000000000000142e+00 -7.875134003807970906e-02
3.669999999999999929e+00 -9.341546969526555444e-02
3.680000000000000160e+00 -1.037322908372950853e-01
3.689999999999999947e+00 -1.094166296857368714e-01
3.700000000000000178e+00 -1.098050110651175998e-01
3.709999999999999964e+00 -1.054025584760737017e-01
3.720000000000000195e+00 -9.566571068587259585e-02
3.729999999999999982e+00 -8.178214297708893965e-02
3.740000000000000213e+00 -6.358937028527214541e-02
3.750000000000000000e+00 -4.249800723498793620e-02
3.760000000000000231e+00 -1.901825617061032869e-02
3.770000000000000018e+00 5.610500687822485635e-03
3.780000000000000249e+00 3.043073813393578492e-02
3.790000000000000036e+00 5.432814910199988689e-02
3.800000000000000266e+00 7.635393948233595851e-02
3.810000000000000053e+00 9.544041100504120634e-02
3.820000000000000284e+00 1.110860512967639657e-01
3.830000000000000071e+00 1.222183783358504888e-01
3.839999999999999858e+00 1.290809565825141170e-01
3.850000000000000089e+00 1.306202389515180307e-01
3.859999999999999876e+00 1.277643895204798874e-01
