# [DEFAULT]
# # input and output specifications
# dataformat = QA
# outputtype = gr
# 
# # PDF calculation setup
# mode = xray
# wavelength = 
# composition = Cl4.0Cr1.0Na1.0
# bgscale = 1.0
# rpoly = 0.9
# qmaxinst = 28
# qmin = 0.0
# qmax = 22
# rmin = 0.0
# rmax = 30.0
# rstep = 0.01
# 
# # End of config --------------------------------------------------------------
# 
# #### start data
# #S 1
# #L r(Å)  G(Å$^$)
# 
0.000000000000000000e+00 0.000000000000000000e+00
1.000000000000000021e-02 -3.818644893108744456e-03
2.000000000000000042e-02 -7.699281066987009349e-03
2.999999999999999889e-02 -1.170549370803869102e-02
4.000000000000000083e-02 -1.584574953174030729e-02
5.000000000000000278e-02 -2.011581633501727945e-02
5.999999999999999778e-02 -2.444343914608516563e-02
7.000000000000000666e-02 -2.872043225295355107e-02
8.000000000000000167e-02 -3.276912988115709274e-02
8.999999999999999667e-02 -3.640840576213404817e-02
1.000000000000000056e-01 -3.933122734816425770e-02
1.100000000000000006e-01 -4.138352143297918673e-02
1.199999999999999956e-01 -4.211556707893911178e-02
1.300000000000000044e-01 -4.151090161520663846e-02
1.400000000000000133e-01 -3.908147637378443784e-02
1.499999999999999944e-01 -3.494472991842190873e-02
1.600000000000000033e-01 -2.879995947957662839e-02
1.700000000000000122e-01 -2.083585586101823969e-02
1.799999999999999933e-01 -1.107647192059070876e-02
1.900000000000000022e-01 1.924695294307026371e-04
2.000000000000000111e-01 1.261386494643829820e-02
2.099999999999999922e-01 2.574572612902079061e-02
2.200000000000000011e-01 3.902509168235805681e-02
2.300000000000000100e-01 5.176862791099828137e-02
2.399999999999999911e-01 6.345697756534014744e-02
2.500000000000000000e-01 7.308271181660870586e-02
2.600000000000000089e-01 8.037600115797373379e-02
2.700000000000000178e-01 8.429533775844602617e-02
2.800000000000000266e-01 8.471771135316120971e-02
2.899999999999999800e-01 8.093230216825300638e-02
2.999999999999999889e-01 7.292379839644277939e-02
3.099999999999999978e-01 6.057737298845733420e-02
3.200000000000000067e-01 4.400414817281933511e-02
3.300000000000000155e-01 2.377308221903047178e-02
3.400000000000000244e-01 2.225061499642553425e-04
3.500000000000000333e-01 -2.554249603240675570e-02
3.599999999999999867e-01 -5.277550838980091252e-02
3.699999999999999956e-01 -8.020156356457373847e-02
3.800000000000000044e-01 -1.064935785001218244e-01
3.900000000000000133e-01 -1.305552417013822186e-01
4.000000000000000222e-01 -1.507554044807570548e-01
4.100000000000000311e-01 -1.661503781338105890e-01
4.199999999999999845e-01 -1.753656490627349129e-01
4.299999999999999933e-01 -1.775050536639716237e-01
4.400000000000000022e-01 -1.719996558832840583e-01
4.500000000000000111e-01 -1.579650085400687576e-01
4.600000000000000200e-01 -1.359892665688945956e-01
4.700000000000000289e-01 -1.052971726599756658e-01
4.799999999999999822e-01 -6.765875114865108064e-02
4.899999999999999911e-01 -2.266903112658454067e-02
5.000000000000000000e-01 2.721855148814582293e-02
5.100000000000000089e-01 8.122865946973406581e-02
5.200000000000000178e-01 1.370986980888820317e-01
5.300000000000000266e-01 1.930217412293827317e-01
5.400000000000000355e-01 2.468160065355085586e-01
5.500000000000000444e-01 2.963944522539582738e-01
5.600000000000000533e-01 3.394494249461356694e-01
5.700000000000000622e-01 3.745048152079907267e-01
5.799999999999999600e-01 3.989451015562233693e-01
5.899999999999999689e-01 4.127073428586129911e-01
5.999999999999999778e-01 4.128235871211736185e-01
6.099999999999999867e-01 4.009152959251044424e-01
6.199999999999999956e-01 3.745054415762608668e-01
6.300000000000000044e-01 3.360598761074964913e-01
6.400000000000000133e-01 2.848308800487650005e-01
6.500000000000000222e-01 2.232521219108787314e-01
6.600000000000000311e-01 1.524625207876629529e-01
6.700000000000000400e-01 7.491614203037946784e-02
6.800000000000000488e-01 -6.965402782425085537e-03
6.900000000000000577e-01 -9.046478909924535183e-02
7.000000000000000666e-01 -1.728807609976699133e-01
7.099999999999999645e-01 -2.508994319401521844e-01
7.199999999999999734e-01 -3.227144071881207221e-01
7.299999999999999822e-01 -3.841323079843010913e-01
7.399999999999999911e-01 -4.348491600279296709e-01
7.500000000000000000e-01 -4.710757019628523667e-01
7.600000000000000089e-01 -4.931445099337274374e-01
7.700000000000000178e-01 -4.988730355892869173e-01
7.800000000000000266e-01 -4.888551476531728390e-01
7.900000000000000355e-01 -4.630772502552202852e-01
8.000000000000000444e-01 -4.222823923131296397e-01
8.100000000000000533e-01 -3.685577758705492757e-01
8.200000000000000622e-01 -3.029444402393361990e-01
8.300000000000000711e-01 -2.289494720964290186e-01
8.399999999999999689e-01 -1.482728638406619615e-01
8.499999999999999778e-01 -6.469209677063013364e-02
8.599999999999999867e-01 1.897537663855931173e-02
8.699999999999999956e-01 9.974012089468864417e-02
8.800000000000000044e-01 1.741954236527888944e-01
8.900000000000000133e-01 2.401317158633181070e-01
9.000000000000000222e-01 2.947506628768354342e-01
9.100000000000000311e-01 3.362533992997126520e-01
9.200000000000000400e-01 3.635104062371117273e-01
9.300000000000000488e-01 3.749054666981056494e-01
9.400000000000000577e-01 3.715284209317689101e-01
9.500000000000000666e-01 3.519621352409623705e-01
9.599999999999999645e-01 3.194163069763737428e-01
9.699999999999999734e-01 2.729585742906959211e-01
9.799999999999999822e-01 2.169011158255065852e-01
9.899999999999999911e-01 1.521171349797490746e-01
1.000000000000000000e+00 8.233201852496987994e-02
1.010000000000000009e+00 9.967967097734668769e-03
1.020000000000000018e+00 -6.175850735392025836e-02
1.030000000000000027e+00 -1.300459864628828177e-01
1.040000000000000036e+00 -1.919148819843179143e-01
1.050000000000000044e+00 -2.454188321765085889e-01
1.060000000000000053e+00 -2.875734853004097702e-01
1.070000000000000062e+00 -3.182483640283498283e-01
1.080000000000000071e+00 -3.343871409101213943e-01
1.090000000000000080e+00 -3.378962796761934562e-01
1.100000000000000089e+00 -3.264880991838687851e-01
1.110000000000000098e+00 -3.030727974406886016e-01
1.120000000000000107e+00 -2.673187374255320825e-01
1.130000000000000115e+00 -2.220752348881484817e-01
1.140000000000000124e+00 -1.689009058986487011e-01
1.150000000000000133e+00 -1.105728025575388185e-01
1.159999999999999920e+00 -4.967813199486303261e-02
1.169999999999999929e+00 1.089853368074659642e-02
1.179999999999999938e+00 6.869512619261283759e-02
1.189999999999999947e+00 1.204844384236440774e-01
1.199999999999999956e+00 1.650672374240450269e-01
1.209999999999999964e+00 1.987368359802125506e-01
1.219999999999999973e+00 2.219647909628487403e-01
1.229999999999999982e+00 2.318837787334083744e-01
1.239999999999999991e+00 2.296182074645588822e-01
1.250000000000000000e+00 2.140960008014027305e-01
1.260000000000000009e+00 1.867263462484810843e-01
1.270000000000000018e+00 1.483769677911133955e-01
1.280000000000000027e+00 1.006719713046958509e-01
1.290000000000000036e+00 4.594095362220467632e-02
1.300000000000000044e+00 -1.383254938406979113e-02
1.310000000000000053e+00 -7.579740655062065791e-02
1.320000000000000062e+00 -1.373473405414245008e-01
1.330000000000000071e+00 -1.961804495399919190e-01
1.340000000000000080e+00 -2.490748351137039296e-01
1.350000000000000089e+00 -2.947826505068733560e-01
1.360000000000000098e+00 -3.304125819221694904e-01
1.370000000000000107e+00 -3.553740747268879230e-01
1.380000000000000115e+00 -3.680806472246688776e-01
1.390000000000000124e+00 -3.683133896125466711e-01
1.400000000000000133e+00 -3.562962799578776041e-01
1.409999999999999920e+00 -3.320830858449765333e-01
1.419999999999999929e+00 -2.976392112929194811e-01
1.429999999999999938e+00 -2.534088371741011758e-01
1.439999999999999947e+00 -2.024808073156897648e-01
1.449999999999999956e+00 -1.459762845815942844e-01
1.459999999999999964e+00 -8.708927606848063108e-02
1.469999999999999973e+00 -2.799043809486653420e-02
1.479999999999999982e+00 2.887745694206374225e-02
1.489999999999999991e+00 8.098237356822665656e-02
1.500000000000000000e+00 1.264226386915361933e-01
1.510000000000000009e+00 1.633344853033998623e-01
1.520000000000000018e+00 1.901095610989321227e-01
1.530000000000000027e+00 2.063257461005736648e-01
1.540000000000000036e+00 2.105424346587917994e-01
1.550000000000000044e+00 2.040902417735468155e-01
1.560000000000000053e+00 1.857628510902367969e-01
1.570000000000000062e+00 1.582861637633613816e-01
1.580000000000000071e+00 1.213351257711423326e-01
1.590000000000000080e+00 7.792866918088095507e-02
1.600000000000000089e+00 2.913851349037353128e-02
1.610000000000000098e+00 -2.244878849223883033e-02
1.620000000000000107e+00 -7.489143002298727370e-02
1.630000000000000115e+00 -1.259198740265718430e-01
1.640000000000000124e+00 -1.736526284537633635e-01
1.650000000000000133e+00 -2.159605302910899693e-01
1.660000000000000142e+00 -2.518773295742697260e-01
1.669999999999999929e+00 -2.792962639165524341e-01
1.679999999999999938e+00 -2.987168300414427824e-01
1.689999999999999947e+00 -3.080865912078949442e-01
1.699999999999999956e+00 -3.091907091489362602e-01
1.709999999999999964e+00 -3.010824378179383642e-01
1.719999999999999973e+00 -2.857177773102578811e-01
1.729999999999999982e+00 -2.635823148072358180e-01
1.739999999999999991e+00 -2.365869603782333741e-01
1.750000000000000000e+00 -2.062295308260270743e-01
1.760000000000000009e+00 -1.744082426230098848e-01
1.770000000000000018e+00 -1.428966887652992901e-01
1.780000000000000027e+00 -1.137003749528684715e-01
1.790000000000000036e+00 -8.805932587960087210e-02
1.800000000000000044e+00 -6.818859143292228808e-02
1.810000000000000053e+00 -5.424731455608841624e-02
1.820000000000000062e+00 -4.832868105175834594e-02
1.830000000000000071e+00 -4.970202669888543895e-02
1.840000000000000080e+00 -5.949355428838456333e-02
1.850000000000000089e+00 -7.668852708648266070e-02
1.860000000000000098e+00 -1.011282619188991205e-01
1.870000000000000107e+00 -1.316402174583461704e-01
1.880000000000000115e+00 -1.669974993228083016e-01
1.890000000000000124e+00 -2.058457785408804308e-01
1.900000000000000133e+00 -2.464497227833155613e-01
1.910000000000000142e+00 -2.871496423379018004e-01
1.919999999999999929e+00 -3.264404626293432865e-01
1.929999999999999938e+00 -3.622206290491836178e-01
1.939999999999999947e+00 -3.937410509395976033e-01
1.949999999999999956e+00 -4.189604512660533575e-01
1.959999999999999964e+00 -4.376853030545557188e-01
1.969999999999999973e+00 -4.486096910192728937e-01
1.979999999999999982e+00 -4.518357359368247450e-01
1.989999999999999991e+00 -4.471755593650531546e-01
2.000000000000000000e+00 -4.349001003206640625e-01
2.010000000000000231e+00 -4.159394845906909666e-01
2.020000000000000018e+00 -3.907334555241997465e-01
2.030000000000000249e+00 -3.609776515466787683e-01
2.040000000000000036e+00 -3.273814173928808469e-01
2.049999999999999822e+00 -2.918002512397838699e-01
2.060000000000000053e+00 -2.553804883046149055e-01
2.069999999999999840e+00 -2.195489069665991777e-01
2.080000000000000071e+00 -1.856536049052260329e-01
2.089999999999999858e+00 -1.546033559025235815e-01
2.100000000000000089e+00 -1.274068889346757771e-01
2.109999999999999876e+00 -1.045972629688505517e-01
2.120000000000000107e+00 -8.642500483914226928e-02
2.129999999999999893e+00 -7.312589096608299033e-02
2.140000000000000124e+00 -6.408033485574150812e-02
2.149999999999999911e+00 -5.920572230079818032e-02
2.160000000000000142e+00 -5.723166374228683129e-02
2.169999999999999929e+00 -5.764813689481971398e-02
2.180000000000000160e+00 -5.901573558837122646e-02
2.189999999999999947e+00 -6.026148509579526413e-02
2.200000000000000178e+00 -6.022526193783431930e-02
2.209999999999999964e+00 -5.764049553567886230e-02
2.220000000000000195e+00 -5.159845806150022141e-02
2.229999999999999982e+00 -4.119338302819912367e-02
2.240000000000000213e+00 -2.570639568537002803e-02
2.250000000000000000e+00 -5.014864460242391894e-03
2.260000000000000231e+00 2.140855185242339712e-02
2.270000000000000018e+00 5.275530605340471996e-02
2.280000000000000249e+00 8.925344051351107033e-02
2.290000000000000036e+00 1.293908637881066859e-01
2.300000000000000266e+00 1.727619263577706843e-01
2.310000000000000053e+00 2.177080672243330017e-01
2.319999999999999840e+00 2.630555016269144897e-01
2.330000000000000071e+00 3.073054172590179989e-01
2.339999999999999858e+00 3.489506680404317329e-01
2.350000000000000089e+00 3.865594999513073948e-01
2.359999999999999876e+00 4.189345430394739722e-01
2.370000000000000107e+00 4.446020016328515179e-01
2.379999999999999893e+00 4.632439621996548018e-01
2.390000000000000124e+00 4.732993038394797125e-01
2.399999999999999911e+00 4.756634749478678703e-01
2.410000000000000142e+00 4.687662109859556114e-01
2.419999999999999929e+00 4.544758513447942905e-01
2.430000000000000160e+00 4.321334095250077834e-01
2.439999999999999947e+00 4.036092995308800391e-01
2.450000000000000178e+00 3.694252185761797702e-01
2.459999999999999964e+00 3.313034398237117428e-01
2.470000000000000195e+00 2.905669627715124492e-01
2.479999999999999982e+00 2.488663234071663843e-01
2.490000000000000213e+00 2.076999196758577693e-01
2.500000000000000000e+00 1.687780009056560337e-01
2.510000000000000231e+00 1.331072786407679065e-01
2.520000000000000018e+00 1.025604110484006348e-01
2.530000000000000249e+00 7.720837947333723805e-02
2.540000000000000036e+00 5.883128375317515230e-02
2.550000000000000266e+00 4.673810833765926209e-02
2.560000000000000053e+00 4.188911150224082502e-02
2.569999999999999840e+00 4.337813701975947595e-02
2.580000000000000071e+00 5.107803951198424536e-02
2.589999999999999858e+00 6.397380656154255663e-02
2.600000000000000089e+00 8.103891719722688958e-02
2.609999999999999876e+00 1.011298601126559282e-01
2.620000000000000107e+00 1.227920302321508644e-01
2.629999999999999893e+00 1.446529967607683986e-01
2.640000000000000124e+00 1.654475588430756872e-01
2.649999999999999911e+00 1.834678436462978124e-01
2.660000000000000142e+00 1.980859083798861553e-01
2.669999999999999929e+00 2.076554251615866653e-01
2.680000000000000160e+00 2.120487725643155907e-01
2.689999999999999947e+00 2.102454465160783215e-01
2.700000000000000178e+00 2.024031510833322611e-01
2.709999999999999964e+00 1.884429538581930408e-01
2.720000000000000195e+00 1.687195951637401881e-01
2.729999999999999982e+00 1.440765154257601655e-01
2.740000000000000213e+00 1.150905949431423325e-01
2.750000000000000000e+00 8.319898632912604841e-02
2.760000000000000231e+00 4.931582508442483581e-02
2.770000000000000018e+00 1.493651511102653956e-02
2.780000000000000249e+00 -1.857236971160611955e-02
2.790000000000000036e+00 -5.010630375183724311e-02
2.800000000000000266e+00 -7.816412002122519187e-02
2.810000000000000053e+00 -1.020156577482863869e-01
2.819999999999999840e+00 -1.205636862703468593e-01
2.830000000000000071e+00 -1.333102330565340554e-01
2.839999999999999858e+00 -1.399720911998132977e-01
2.850000000000000089e+00 -1.402056254514203459e-01
2.859999999999999876e+00 -1.346768242173386199e-01
2.870000000000000107e+00 -1.232199357537946127e-01
2.879999999999999893e+00 -1.072773303776923121e-01
2.890000000000000124e+00 -8.698160325566847706e-02
2.899999999999999911e+00 -6.406401653696673637e-02
2.910000000000000142e+00 -3.928856885162658463e-02
2.919999999999999929e+00 -1.408108980183311529e-02
2.930000000000000160e+00 1.039566986666271009e-02
2.939999999999999947e+00 3.300898258385934897e-02
2.950000000000000178e+00 5.272301960643114432e-02
2.959999999999999964e+00 6.859802114841868914e-02
2.970000000000000195e+00 8.018603136006897947e-02
2.979999999999999982e+00 8.668050565552387621e-02
2.990000000000000213e+00 8.846978167168331741e-02
3.000000000000000000e+00 8.490827284220904547e-02
3.010000000000000231e+00 7.713592857141413073e-02
3.020000000000000018e+00 6.494487896629118351e-02
3.030000000000000249e+00 4.974820854044083307e-02
3.040000000000000036e+00 3.206476725464337679e-02
3.050000000000000266e+00 1.317497406903090675e-02
3.060000000000000053e+00 -5.917322977514797439e-03
3.070000000000000284e+00 -2.403580853724403277e-02
3.080000000000000071e+00 -4.017854089424681419e-02
3.089999999999999858e+00 -5.320533381511850096e-02
3.100000000000000089e+00 -6.259074923748866870e-02
3.109999999999999876e+00 -6.718908224937975016e-02
3.120000000000000107e+00 -6.727495882818390616e-02
3.129999999999999893e+00 -6.173563138784351340e-02
3.140000000000000124e+00 -5.157717813523371442e-02
3.149999999999999911e+00 -3.628985296726290610e-02
3.160000000000000142e+00 -1.702522979495846994e-02
3.169999999999999929e+00 5.902891321733510881e-03
3.180000000000000160e+00 3.134877538407775804e-02
3.189999999999999947e+00 5.840376390727797240e-02
3.200000000000000178e+00 8.590174869366169752e-02
3.209999999999999964e+00 1.127789203191028461e-01
3.220000000000000195e+00 1.377733440488829175e-01
3.229999999999999982e+00 1.601612879873025030e-01
3.240000000000000213e+00 1.785223711945126135e-01
3.250000000000000000e+00 1.928229693415268731e-01
3.260000000000000231e+00 2.016723806778046857e-01
3.270000000000000018e+00 2.056180108754473712e-01
3.280000000000000249e+00 2.038808320791330453e-01
3.290000000000000036e+00 1.971614689150171240e-01
3.300000000000000266e+00 1.855189310871102615e-01
3.310000000000000053e+00 1.697295908584624813e-01
3.320000000000000284e+00 1.505605112435154658e-01
3.330000000000000071e+00 1.288790807403255301e-01
3.339999999999999858e+00 1.058072923117635566e-01
3.350000000000000089e+00 8.237989390808883594e-02
3.359999999999999876e+00 5.960047313881088743e-02
3.370000000000000107e+00 3.875274108974840342e-02
3.379999999999999893e+00 2.036288673158100082e-02
3.390000000000000124e+00 5.686428333259045675e-03
3.399999999999999911e+00 -5.155429564860100969e-03
3.410000000000000142e+00 -1.137045802708951635e-02
3.419999999999999929e+00 -1.307231928727911781e-02
3.430000000000000160e+00 -1.018430420036973635e-02
3.439999999999999947e+00 -2.984247582127606737e-03
3.450000000000000178e+00 7.898652104259329398e-03
3.459999999999999964e+00 2.200748414026869326e-02
3.470000000000000195e+00 3.825888731390744008e-02
3.479999999999999982e+00 5.593450705385313859e-02
3.490000000000000213e+00 7.391026087578728143e-02
3.500000000000000000e+00 9.112727448062202251e-02
3.510000000000000231e+00 1.067680826949612555e-01
3.520000000000000018e+00 1.196869007464102658e-01
3.530000000000000249e+00 1.293646662508877720e-01
3.540000000000000036e+00 1.349861745421219728e-01
3.550000000000000266e+00 1.362295339030666075e-01
3.560000000000000053e+00 1.329201153804479008e-01
3.570000000000000284e+00 1.248841508058891048e-01
3.580000000000000071e+00 1.126753811032196601e-01
3.589999999999999858e+00 9.629943415658860639e-02
3.600000000000000089e+00 7.687905801030456288e-02
3.609999999999999876e+00 5.470540343140297551e-02
3.620000000000000107e+00 3.108461913229843693e-02
3.629999999999999893e+00 6.793704755074438106e-03
3.640000000000000124e+00 -1.709154560334074507e-02
3.649999999999999911e+00 -3.953404947738888009e-02
3.660000000000000142e+00 -5.966917247462735080e-02
3.669999999999999929e+00 -7.663627428461876334e-02
3.680000000000000160e+00 -8.969840415135409140e-02
3.689999999999999947e+00 -9.854533142895811892e-02
3.700000000000000178e+00 -1.025232924277755392e-01
3.709999999999999964e+00 -1.020635008424963103e-01
3.720000000000000195e+00 -9.662764373148495511e-02
3.729999999999999982e+00 -8.729854695004758691e-02
3.740000000000000213e+00 -7.389432386064084812e-02
3.750000000000000000e+00 -5.772210306032275057e-02
3.760000000000000231e+00 -3.923464893299323519e-02
3.770000000000000018e+00 -1.958710940814387125e-02
3.780000000000000249e+00 3.386510270603094314e-04
3.790000000000000036e+00 1.950260988270248463e-02
3.800000000000000266e+00 3.701913764725324463e-02
3.810000000000000053e+00 5.189423987742049910e-02
3.820000000000000284e+00 6.365034669439052772e-02
3.830000000000000071e+00 7.129422691831110992e-02
3.839999999999999858e+00 7.503759438307194829e-02
3.850000000000000089e+00 7.391219004543336801e-02
3.859999999999999876e+00 6.876737101914257022e-02
