# [DEFAULT]
# # input and output specifications
# dataformat = QA
# outputtype = gr
# 
# # PDF calculation setup
# mode = xray
# wavelength = 
# composition = Cl4.0Cr1.0Na1.0
# bgscale = 1.0
# rpoly = 0.9
# qmaxinst = 28
# qmin = 0.0
# qmax = 22
# rmin = 0.0
# rmax = 30.0
# rstep = 0.01
# 
# # End of config --------------------------------------------------------------
# 
# #### start data
# #S 1
# #L r(Å)  G(Å$^$)
# 
0.000000000000000000e+00 0.000000000000000000e+00
1.000000000000000021e-02 -1.873512673948838931e-03
2.000000000000000042e-02 -3.914217916741289868e-03
2.999999999999999889e-02 -6.313717996300139551e-03
4.000000000000000083e-02 -9.146403151396182915e-03
5.000000000000000278e-02 -1.251122428510718226e-02
5.999999999999999778e-02 -1.637187973057697282e-02
7.000000000000000666e-02 -2.065639578051657946e-02
8.000000000000000167e-02 -2.519865830104533327e-02
8.999999999999999667e-02 -2.977073224700485174e-02
1.000000000000000056e-01 -3.405040740109703534e-02
1.100000000000000006e-01 -3.776915009092802339e-02
1.199999999999999956e-01 -4.042520658209092926e-02
1.300000000000000044e-01 -4.186317401664563925e-02
1.400000000000000133e-01 -4.149179324688419962e-02
1.499999999999999944e-01 -3.931238499192099556e-02
1.600000000000000033e-01 -3.489538609698884103e-02
1.700000000000000122e-01 -2.834420239851266621e-02
1.799999999999999933e-01 -1.958138066870984684e-02
1.900000000000000022e-01 -8.831536126942183401e-03
2.000000000000000111e-01 3.577074794863853088e-03
2.099999999999999922e-01 1.724111127551650538e-02
2.200000000000000011e-01 3.153525055646061448e-02
2.300000000000000100e-01 4.578482537046280054e-02
2.399999999999999911e-01 5.933249509145689660e-02
2.500000000000000000e-01 7.113301716070308256e-02
2.600000000000000089e-01 8.075177932528021518e-02
2.700000000000000178e-01 8.703809612668349238e-02
2.800000000000000266e-01 8.973036950126686562e-02
2.899999999999999800e-01 8.797619094049274890e-02
2.999999999999999889e-01 8.164438210498820014e-02
3.099999999999999978e-01 7.051111326262268775e-02
3.200000000000000067e-01 5.458995938411381060e-02
3.300000000000000155e-01 3.442752239141639442e-02
3.400000000000000244e-01 1.028621197037148105e-02
3.500000000000000333e-01 -1.664025338813324845e-02
3.599999999999999867e-01 -4.564331255610110105e-02
3.699999999999999956e-01 -7.527108896261384963e-02
3.800000000000000044e-01 -1.041484669487876130e-01
3.900000000000000133e-01 -1.309804733541298227e-01
4.000000000000000222e-01 -1.539881673935934447e-01
4.100000000000000311e-01 -1.720397878388568724e-01
4.199999999999999845e-01 -1.835702904220794240e-01
4.299999999999999933e-01 -1.874983252361174801e-01
4.400000000000000022e-01 -1.831072838979750650e-01
4.500000000000000111e-01 -1.693235824656273980e-01
4.600000000000000200e-01 -1.467089879679834563e-01
4.700000000000000289e-01 -1.143010182740955283e-01
4.799999999999999822e-01 -7.400983225268994992e-02
4.899999999999999911e-01 -2.527316710092817817e-02
5.000000000000000000e-01 2.918316230385932866e-02
5.100000000000000089e-01 8.857812389374621065e-02
5.200000000000000178e-01 1.503648267803791017e-01
5.300000000000000266e-01 2.125508265645418837e-01
5.400000000000000355e-01 2.726531157310174147e-01
5.500000000000000444e-01 3.282979963894427922e-01
5.600000000000000533e-01 3.768340753691070688e-01
5.700000000000000622e-01 4.165190818817401386e-01
5.799999999999999600e-01 4.443200102019214670e-01
5.899999999999999689e-01 4.600627976057333757e-01
5.999999999999999778e-01 4.602685259999994560e-01
6.099999999999999867e-01 4.466803435506876974e-01
6.199999999999999956e-01 4.163288637364451761e-01
6.300000000000000044e-01 3.719449727820800522e-01
6.400000000000000133e-01 3.125192982086145710e-01
6.500000000000000222e-01 2.407627086174764508e-01
6.600000000000000311e-01 1.578598082563739124e-01
6.700000000000000400e-01 6.655292131880509443e-02
6.800000000000000488e-01 -3.042292318479651245e-02
6.900000000000000577e-01 -1.300172152453878127e-01
7.000000000000000666e-01 -2.290666274569327365e-01
7.099999999999999645e-01 -3.238187747726012367e-01
7.199999999999999734e-01 -4.120324625724647860e-01
7.299999999999999822e-01 -4.889014198320682514e-01
7.399999999999999911e-01 -5.538509691274920987e-01
7.500000000000000000e-01 -6.024270733965241265e-01
7.600000000000000089e-01 -6.347990739966935525e-01
7.700000000000000178e-01 -6.482642625515632195e-01
7.800000000000000266e-01 -6.432902874515766811e-01
7.900000000000000355e-01 -6.196441038741953289e-01
8.000000000000000444e-01 -5.779373113114369964e-01
8.100000000000000533e-01 -5.204154550815407454e-01
8.200000000000000622e-01 -4.479803334645095503e-01
8.300000000000000711e-01 -3.646558292201186324e-01
8.399999999999999689e-01 -2.720356500417507872e-01
8.499999999999999778e-01 -1.746319964944391401e-01
8.599999999999999867e-01 -7.534453851152150827e-02
8.699999999999999956e-01 2.213547961784470552e-02
8.800000000000000044e-01 1.140589227561680796e-01
8.900000000000000133e-01 1.976527945363644734e-01
9.000000000000000222e-01 2.696560441710398881e-01
9.100000000000000311e-01 3.277882568724035939e-01
9.200000000000000400e-01 3.705346418347980064e-01
9.300000000000000488e-01 3.958219730658213975e-01
9.400000000000000577e-01 4.045969314758529611e-01
9.500000000000000666e-01 3.949742356094833595e-01
9.599999999999999645e-01 3.703571169111601891e-01
9.699999999999999734e-01 3.293353025254910360e-01
9.799999999999999822e-01 2.766835227173156664e-01
9.899999999999999911e-01 2.130429562148941636e-01
1.000000000000000000e+00 1.425945363860545434e-01
1.010000000000000009e+00 6.784401388372814090e-02
1.020000000000000018e+00 -7.576209129137366147e-03
1.030000000000000027e+00 -8.055551260739740593e-02
1.040000000000000036e+00 -1.477230368474296285e-01
1.050000000000000044e+00 -2.067453472602561737e-01
1.060000000000000053e+00 -2.542368587147234571e-01
1.070000000000000062e+00 -2.897646567708249687e-01
1.080000000000000071e+00 -3.098280070496112204e-01
1.090000000000000080e+00 -3.162307054704687759e-01
1.100000000000000089e+00 -3.062484635997491655e-01
1.110000000000000098e+00 -2.828632107324023925e-01
1.120000000000000107e+00 -2.454714402630028269e-01
1.130000000000000115e+00 -1.970571512514940615e-01
1.140000000000000124e+00 -1.391481656658994648e-01
1.150000000000000133e+00 -7.468694185271722297e-02
1.159999999999999920e+00 -6.452921467257677346e-03
1.169999999999999929e+00 6.247395466274523190e-02
1.179999999999999938e+00 1.293018684100765703e-01
1.189999999999999947e+00 1.905548640742338040e-01
1.199999999999999956e+00 2.446944871937101196e-01
1.209999999999999964e+00 2.876788837623046602e-01
1.219999999999999973e+00 3.197419347283966817e-01
1.229999999999999982e+00 3.376472072634517652e-01
1.239999999999999991e+00 3.423855028656498933e-01
1.250000000000000000e+00 3.325984933590706016e-01
1.260000000000000009e+00 3.096199527169231636e-01
1.270000000000000018e+00 2.742071731981567395e-01
1.280000000000000027e+00 2.279371142310541998e-01
1.290000000000000036e+00 1.732392927068283628e-01
1.300000000000000044e+00 1.120716720172722780e-01
1.310000000000000053e+00 4.756726759911770325e-02
1.320000000000000062e+00 -1.765487821231667351e-02
1.330000000000000071e+00 -8.091961650778753401e-02
1.340000000000000080e+00 -1.388938749694601238e-01
1.350000000000000089e+00 -1.899924811418415016e-01
1.360000000000000098e+00 -2.311087445025349629e-01
1.370000000000000107e+00 -2.613951309405818657e-01
1.380000000000000115e+00 -2.790323993814005643e-01
1.390000000000000124e+00 -2.835962648684033915e-01
1.400000000000000133e+00 -2.751583392743774392e-01
1.409999999999999920e+00 -2.535926607875972350e-01
1.419999999999999929e+00 -2.208576025533356690e-01
1.429999999999999938e+00 -1.772308071310017830e-01
1.439999999999999947e+00 -1.259578419745880362e-01
1.449999999999999956e+00 -6.801259160810481375e-02
1.459999999999999964e+00 -6.853223271512512427e-03
1.469999999999999973e+00 5.537568989722221197e-02
1.479999999999999982e+00 1.159897784766118767e-01
1.489999999999999991e+00 1.723563066317237435e-01
1.500000000000000000e+00 2.223650922492047544e-01
1.510000000000000009e+00 2.639880803380527663e-01
1.520000000000000018e+00 2.954295185874621366e-01
1.530000000000000027e+00 3.161149121264193451e-01
1.540000000000000036e+00 3.244200267996735221e-01
1.550000000000000044e+00 3.216005346494513750e-01
1.560000000000000053e+00 3.062567587118877888e-01
1.570000000000000062e+00 2.811466119330278124e-01
1.580000000000000071e+00 2.457709439999533341e-01
1.590000000000000080e+00 2.032471924640551209e-01
1.600000000000000089e+00 1.545585422420401589e-01
1.610000000000000098e+00 1.023922919539717868e-01
1.620000000000000107e+00 4.870098487679233590e-02
1.630000000000000115e+00 -4.156491542747846671e-03
1.640000000000000124e+00 -5.421321562204770017e-02
1.650000000000000133e+00 -9.926360026854758045e-02
1.660000000000000142e+00 -1.382209696810491606e-01
1.669999999999999929e+00 -1.689090712492484492e-01
1.679999999999999938e+00 -1.917140706777661630e-01
1.689999999999999947e+00 -2.045128182188983568e-01
1.699999999999999956e+00 -2.090146590241310220e-01
1.709999999999999964e+00 -2.042039050406726508e-01
1.719999999999999973e+00 -1.920012668278732459e-01
1.729999999999999982e+00 -1.728443584737108241e-01
1.739999999999999991e+00 -1.486314119657942134e-01
1.750000000000000000e+00 -1.208452268430038334e-01
1.760000000000000009e+00 -9.138070113314347709e-02
1.770000000000000018e+00 -6.202809555578801121e-02
1.780000000000000027e+00 -3.479150873960191320e-02
1.790000000000000036e+00 -1.094968675103937493e-02
1.800000000000000044e+00 7.284008866282803973e-03
1.810000000000000053e+00 1.970326139131517440e-02
1.820000000000000062e+00 2.421017681740381816e-02
1.830000000000000071e+00 2.149406199372495829e-02
1.840000000000000080e+00 1.041079194582987186e-02
1.850000000000000089e+00 -8.058619673590875290e-03
1.860000000000000098e+00 -3.378558388831800346e-02
1.870000000000000107e+00 -6.563545051810086572e-02
1.880000000000000115e+00 -1.024203488198738993e-01
1.890000000000000124e+00 -1.428439777926400200e-01
1.900000000000000133e+00 -1.852120928370484532e-01
1.910000000000000142e+00 -2.279633234260008412e-01
1.919999999999999929e+00 -2.696200772213744323e-01
1.929999999999999938e+00 -3.082428794947404960e-01
1.939999999999999947e+00 -3.430885177421397203e-01
1.949999999999999956e+00 -3.723061854720485786e-01
1.959999999999999964e+00 -3.957225901394550993e-01
1.969999999999999973e+00 -4.122029880360317255e-01
1.979999999999999982e+00 -4.218996104018414850e-01
1.989999999999999991e+00 -4.247297466340168581e-01
2.000000000000000000e+00 -4.210500486111686258e-01
2.010000000000000231e+00 -4.117857533149996696e-01
2.020000000000000018e+00 -3.974916921884960042e-01
2.030000000000000249e+00 -3.797201458784366657e-01
2.040000000000000036e+00 -3.593002219689834242e-01
2.049999999999999822e+00 -3.378201504315154202e-01
2.060000000000000053e+00 -3.164659307445472636e-01
2.069999999999999840e+00 -2.963549347830332081e-01
2.080000000000000071e+00 -2.787107443057195155e-01
2.089999999999999858e+00 -2.641434441516682385e-01
2.100000000000000089e+00 -2.534009101378081885e-01
2.109999999999999876e+00 -2.466933461273696504e-01
2.120000000000000107e+00 -2.439686435622107907e-01
2.129999999999999893e+00 -2.450694402241949676e-01
2.140000000000000124e+00 -2.491554497841101667e-01
2.149999999999999911e+00 -2.556357505877155933e-01
2.160000000000000142e+00 -2.632301355418311672e-01
2.169999999999999929e+00 -2.707774096459807933e-01
2.180000000000000160e+00 -2.770633958053634882e-01
2.189999999999999947e+00 -2.804680262993126116e-01
2.200000000000000178e+00 -2.800845501789535619e-01
2.209999999999999964e+00 -2.743840694631819455e-01
2.220000000000000195e+00 -2.626867714615174765e-01
2.229999999999999982e+00 -2.441597408314027107e-01
2.240000000000000213e+00 -2.182962116618934745e-01
2.250000000000000000e+00 -1.853440988083911445e-01
2.260000000000000231e+00 -1.450160566192782441e-01
2.270000000000000018e+00 -9.867287124492607475e-02
2.280000000000000249e+00 -4.642789493189321270e-02
2.290000000000000036e+00 9.645485831131140123e-03
2.300000000000000266e+00 6.862586908243774320e-02
2.310000000000000053e+00 1.284237185566085293e-01
2.319999999999999840e+00 1.872667509479609416e-01
2.330000000000000071e+00 2.433291840202440603e-01
2.339999999999999858e+00 2.946125540764565343e-01
2.350000000000000089e+00 3.393944412056926763e-01
2.359999999999999876e+00 3.762652602089933129e-01
2.370000000000000107e+00 4.034548900793374915e-01
2.379999999999999893e+00 4.208130256388284418e-01
2.390000000000000124e+00 4.264775934264092294e-01
2.399999999999999911e+00 4.218954603589090691e-01
2.410000000000000142e+00 4.052418753731331647e-01
2.419999999999999929e+00 3.791633840391362975e-01
2.430000000000000160e+00 3.430608045544752405e-01
2.439999999999999947e+00 2.995035342399970379e-01
2.450000000000000178e+00 2.494010071571267084e-01
2.459999999999999964e+00 1.950969331475414237e-01
2.470000000000000195e+00 1.384530541950199645e-01
2.479999999999999982e+00 8.172909172474387973e-02
2.490000000000000213e+00 2.689082810229031714e-02
2.500000000000000000e+00 -2.368265204766500931e-02
2.510000000000000231e+00 -6.879768941474488642e-02
2.520000000000000018e+00 -1.058010139051686199e-01
2.530000000000000249e+00 -1.348225057667552240e-01
2.540000000000000036e+00 -1.533079503623846207e-01
2.550000000000000266e+00 -1.623882992665460212e-01
2.560000000000000053e+00 -1.606540255257763727e-01
2.569999999999999840e+00 -1.494297280254878180e-01
2.580000000000000071e+00 -1.288233534831463301e-01
2.589999999999999858e+00 -1.002184024388915323e-01
2.600000000000000089e+00 -6.499339497006967337e-02
2.609999999999999876e+00 -2.463024538559414195e-02
2.620000000000000107e+00 1.883718132198728898e-02
2.629999999999999893e+00 6.367297289834346341e-02
2.640000000000000124e+00 1.080000691578236194e-01
2.649999999999999911e+00 1.496525147579791104e-01
2.660000000000000142e+00 1.875349363702750738e-01
2.669999999999999929e+00 2.194639037830296291e-01
2.680000000000000160e+00 2.450276810635395042e-01
2.689999999999999947e+00 2.627412865024841837e-01
2.700000000000000178e+00 2.725755409115879768e-01
2.709999999999999964e+00 2.742044007844973152e-01
2.720000000000000195e+00 2.678255579138228426e-01
2.729999999999999982e+00 2.543246774794621912e-01
2.740000000000000213e+00 2.341152578703506459e-01
2.750000000000000000e+00 2.089588232765014486e-01
2.760000000000000231e+00 1.795958000437080648e-01
2.770000000000000018e+00 1.480323024199078352e-01
2.780000000000000249e+00 1.155338705286478029e-01
2.790000000000000036e+00 8.370775457170304135e-02
2.800000000000000266e+00 5.411967590308083137e-02
2.810000000000000053e+00 2.785873665818010964e-02
2.819999999999999840e+00 6.189359177172110496e-03
2.830000000000000071e+00 -1.015518178668920607e-02
2.839999999999999858e+00 -2.072380914276403599e-02
2.850000000000000089e+00 -2.503808013190884571e-02
2.859999999999999876e+00 -2.366388252407407300e-02
2.870000000000000107e+00 -1.638683317879813597e-02
2.879999999999999893e+00 -4.636694094463211790e-03
2.890000000000000124e+00 1.141706661318976634e-02
2.899999999999999911e+00 2.999221725877187703e-02
2.910000000000000142e+00 5.020997051670719746e-02
2.919999999999999929e+00 7.056282731484728177e-02
2.930000000000000160e+00 8.973711295906473817e-02
2.939999999999999947e+00 1.065034728946205739e-01
2.950000000000000178e+00 1.197042783673850641e-01
2.959999999999999964e+00 1.282961331235560332e-01
2.970000000000000195e+00 1.318018880341104426e-01
2.979999999999999982e+00 1.293151674389065031e-01
2.990000000000000213e+00 1.213250206155831318e-01
3.000000000000000000e+00 1.071129117548672710e-01
3.010000000000000231e+00 8.803594293193071907e-02
3.020000000000000018e+00 6.390154246139592709e-02
3.030000000000000249e+00 3.638293204943127135e-02
3.040000000000000036e+00 6.151960985995286874e-03
3.050000000000000266e+00 -2.525993235901291198e-02
3.060000000000000053e+00 -5.660562129091229605e-02
3.070000000000000284e+00 -8.644793782832789486e-02
3.080000000000000071e+00 -1.135487204489701446e-01
3.089999999999999858e+00 -1.364708881442356914e-01
3.100000000000000089e+00 -1.545649354275792919e-01
3.109999999999999876e+00 -1.663309841027641456e-01
3.120000000000000107e+00 -1.721180304035399566e-01
3.129999999999999893e+00 -1.703977004063974565e-01
3.140000000000000124e+00 -1.624402856051130606e-01
3.149999999999999911e+00 -1.474389803206474503e-01
3.160000000000000142e+00 -1.268274933169218632e-01
3.169999999999999929e+00 -1.008462182605772695e-01
3.180000000000000160e+00 -7.089472464612708857e-02
3.189999999999999947e+00 -3.802046912544451707e-02
3.200000000000000178e+00 -3.621659950609789833e-03
3.209999999999999964e+00 3.095878512014370310e-02
3.220000000000000195e+00 6.422232724739639076e-02
3.229999999999999982e+00 9.513139770617161373e-02
3.240000000000000213e+00 1.219893111955829001e-01
3.250000000000000000e+00 1.445221470063108582e-01
3.260000000000000231e+00 1.610116824832059923e-01
3.270000000000000018e+00 1.718854307630201250e-01
3.280000000000000249e+00 1.760723151209910853e-01
3.290000000000000036e+00 1.742218631853673649e-01
3.300000000000000266e+00 1.662258826533165035e-01
3.310000000000000053e+00 1.528401936919283888e-01
3.320000000000000284e+00 1.348339503622172919e-01
3.330000000000000071e+00 1.130654814388550311e-01
3.339999999999999858e+00 8.882255845686143347e-02
3.350000000000000089e+00 6.314420946102046461e-02
3.359999999999999876e+00 3.731326948257864679e-02
3.370000000000000107e+00 1.264940992306747176e-02
3.379999999999999893e+00 -1.001783565958200978e-02
3.390000000000000124e+00 -2.931109533462367134e-02
3.399999999999999911e+00 -4.487701656644654119e-02
3.410000000000000142e+00 -5.574958370523576401e-02
3.419999999999999929e+00 -6.187122142119237667e-02
3.430000000000000160e+00 -6.301398416593345653e-02
3.439999999999999947e+00 -5.931967623789873717e-02
3.450000000000000178e+00 -5.134818276752783212e-02
3.459999999999999964e+00 -3.943553536818771021e-02
3.470000000000000195e+00 -2.470624284099933593e-02
3.479999999999999982e+00 -7.763407447174224679e-03
3.490000000000000213e+00 1.013023687230829931e-02
3.500000000000000000e+00 2.800108178540589021e-02
3.510000000000000231e+00 4.486195513278589536e-02
3.520000000000000018e+00 5.957685089749566176e-02
3.530000000000000249e+00 7.149333608252557426e-02
3.540000000000000036e+00 7.974709348376021745e-02
3.550000000000000266e+00 8.392353203878705203e-02
3.560000000000000053e+00 8.378093457416276035e-02
3.570000000000000284e+00 7.909294896356057480e-02
3.580000000000000071e+00 7.036163808577322598e-02
3.589999999999999858e+00 5.758071730172958230e-02
3.600000000000000089e+00 4.185158964307782864e-02
3.609999999999999876e+00 2.349947289694021002e-02
3.620000000000000107e+00 3.836810210606843123e-03
3.629999999999999893e+00 -1.628576183585651871e-02
3.640000000000000124e+00 -3.576179376723667702e-02
3.649999999999999911e+00 -5.346176066437317159e-02
3.660000000000000142e+00 -6.846949219515567620e-02
3.669999999999999929e+00 -7.984534966018953794e-02
3.680000000000000160e+00 -8.678143306287329495e-02
3.689999999999999947e+00 -8.893795425560696577e-02
3.700000000000000178e+00 -8.557313532510481269e-02
3.709999999999999964e+00 -7.716573326648441811e-02
3.720000000000000195e+00 -6.308075497401960385e-02
3.729999999999999982e+00 -4.452763464676590122e-02
3.740000000000000213e+00 -2.125659090169195950e-02
3.750000000000000000e+00 5.263366417704987144e-03
3.760000000000000231e+00 3.456200312819839027e-02
3.770000000000000018e+00 6.533506016879971068e-02
3.780000000000000249e+00 9.660416444094323263e-02
3.790000000000000036e+00 1.271841209507272308e-01
3.800000000000000266e+00 1.560569934680034465e-01
3.810000000000000053e+00 1.820714325935998690e-01
3.820000000000000284e+00 2.046366323276021248e-01
3.830000000000000071e+00 2.225715547185936616e-01
3.839999999999999858e+00 2.360478560412824778e-01
3.850000000000000089e+00 2.438645489520027687e-01
3.859999999999999876e+00 2.469203000624557442e-01
