# [DEFAULT]
# # input and output specifications
# dataformat = QA
# outputtype = gr
# 
# # PDF calculation setup
# mode = xray
# wavelength = 
# composition = Cl4.0Cr1.0Na1.0
# bgscale = 1.0
# rpoly = 0.9
# qmaxinst = 28
# qmin = 0.0
# qmax = 22
# rmin = 0.0
# rmax = 30.0
# rstep = 0.01
# 
# # End of config --------------------------------------------------------------
# 
# #### start data
# #S 1
# #L r(Å)  G(Å$^$)
# 
0.000000000000000000e+00 0.000000000000000000e+00
1.000000000000000021e-02 -2.203627136623759284e-03
2.000000000000000042e-02 -4.560836577292014943e-03
2.999999999999999889e-02 -7.246477612359943435e-03
4.000000000000000083e-02 -1.032592223705632375e-02
5.000000000000000278e-02 -1.388372444493623202e-02
5.999999999999999778e-02 -1.787742606123391212e-02
7.000000000000000666e-02 -2.222828268433613488e-02
8.000000000000000167e-02 -2.676571619819414008e-02
8.999999999999999667e-02 -3.126537770792763710e-02
1.000000000000000056e-01 -3.540222812092309879e-02
1.100000000000000006e-01 -3.892115666846063249e-02
1.199999999999999956e-01 -4.132041957916897379e-02
1.300000000000000044e-01 -4.246366348944140973e-02
1.400000000000000133e-01 -4.176616543815135640e-02
1.499999999999999944e-01 -3.924730428198777016e-02
1.600000000000000033e-01 -3.449067873487064034e-02
1.700000000000000122e-01 -2.761466377465623609e-02
1.799999999999999933e-01 -1.855644268089533949e-02
1.900000000000000022e-01 -7.553881350126067165e-03
2.000000000000000111e-01 5.054840578864139462e-03
2.099999999999999922e-01 1.885362083442135989e-02
2.200000000000000011e-01 3.321661902314220621e-02
2.300000000000000100e-01 4.745654078068660409e-02
2.399999999999999911e-01 6.092689076061878067e-02
2.500000000000000000e-01 7.257089773335934080e-02
2.600000000000000089e-01 8.197273755949524565e-02
2.700000000000000178e-01 8.797972726738620408e-02
2.800000000000000266e-01 9.034785990567004155e-02
2.899999999999999800e-01 8.823296612666178818e-02
2.999999999999999889e-01 8.152021783482212014e-02
3.099999999999999978e-01 6.999962642386353684e-02
3.200000000000000067e-01 5.370100732406289656e-02
3.300000000000000155e-01 3.318426845769524569e-02
3.400000000000000244e-01 8.729476022145112035e-03
3.500000000000000333e-01 -1.846294054152573805e-02
3.599999999999999867e-01 -4.766420822457386602e-02
3.699999999999999956e-01 -7.742551484506755843e-02
3.800000000000000044e-01 -1.063527898640152930e-01
3.900000000000000133e-01 -1.331601777782660811e-01
4.000000000000000222e-01 -1.560584512620354913e-01
4.100000000000000311e-01 -1.739254520828227291e-01
4.199999999999999845e-01 -1.851968514221820628e-01
4.299999999999999933e-01 -1.888005157668714573e-01
4.400000000000000022e-01 -1.840297578345051754e-01
4.500000000000000111e-01 -1.698202025237658952e-01
4.600000000000000200e-01 -1.467485903570575623e-01
4.700000000000000289e-01 -1.138628939079960600e-01
4.799999999999999822e-01 -7.308790965858129318e-02
4.899999999999999911e-01 -2.387461252493318017e-02
5.000000000000000000e-01 3.104117852794718163e-02
5.100000000000000089e-01 9.086419567778908357e-02
5.200000000000000178e-01 1.530419668176148384e-01
5.300000000000000266e-01 2.155710179598886167e-01
5.400000000000000355e-01 2.759649405791549381e-01
5.500000000000000444e-01 3.318454037051924432e-01
5.600000000000000533e-01 3.805580947840338513e-01
5.700000000000000622e-01 4.203635488218050442e-01
5.799999999999999600e-01 4.482253537892610384e-01
5.899999999999999689e-01 4.639787224378977837e-01
5.999999999999999778e-01 4.641405126075390797e-01
6.099999999999999867e-01 4.504665920466585649e-01
6.199999999999999956e-01 4.199845691840631834e-01
6.300000000000000044e-01 3.754363590619829161e-01
6.400000000000000133e-01 3.158123601372666567e-01
6.500000000000000222e-01 2.438300188494021414e-01
6.600000000000000311e-01 1.606751035491049695e-01
6.700000000000000400e-01 6.909239956167542718e-02
6.800000000000000488e-01 -2.818191326146451264e-02
6.900000000000000577e-01 -1.280986442620160315e-01
7.000000000000000666e-01 -2.274934152204010074e-01
7.099999999999999645e-01 -3.226186888146658216e-01
7.199999999999999734e-01 -4.112311788066190243e-01
7.299999999999999822e-01 -4.885326710437453146e-01
7.399999999999999911e-01 -5.539447231289977847e-01
7.500000000000000000e-01 -6.030203428710885216e-01
7.600000000000000089e-01 -6.359254756229418826e-01
7.700000000000000178e-01 -6.499604445786028029e-01
7.800000000000000266e-01 -6.455893587482962603e-01
7.900000000000000355e-01 -6.225768948588409346e-01
8.000000000000000444e-01 -5.815299735471428644e-01
8.100000000000000533e-01 -5.246868584414707826e-01
8.200000000000000622e-01 -4.529419609770110600e-01
8.300000000000000711e-01 -3.703091540370213597e-01
8.399999999999999689e-01 -2.783699569880672131e-01
8.499999999999999778e-01 -1.816273774322345602e-01
8.599999999999999867e-01 -8.296346114099897862e-02
8.699999999999999956e-01 1.393728939703292070e-02
8.800000000000000044e-01 1.053443981869457979e-01
8.900000000000000133e-01 1.884912479331260771e-01
9.000000000000000222e-01 2.601309265083422972e-01
9.100000000000000311e-01 3.179905220725290915e-01
9.200000000000000400e-01 3.605601952895323148e-01
9.300000000000000488e-01 3.857762300895783980e-01
9.400000000000000577e-01 3.945783098901133323e-01
9.500000000000000666e-01 3.850925198341305089e-01
9.599999999999999645e-01 3.607031023009976689e-01
9.699999999999999734e-01 3.200116939885206957e-01
9.799999999999999822e-01 2.677674139749913196e-01
9.899999999999999911e-01 2.046141532789202411e-01
1.000000000000000000e+00 1.347118537548204209e-01
1.010000000000000009e+00 6.055928555845958156e-02
1.020000000000000018e+00 -1.422748130563527766e-02
1.030000000000000027e+00 -8.654939241666544103e-02
1.040000000000000036e+00 -1.530482456650670842e-01
1.050000000000000044e+00 -2.114011272321165980e-01
1.060000000000000053e+00 -2.582322727171349475e-01
1.070000000000000062e+00 -2.931138236574401534e-01
1.080000000000000071e+00 -3.125520894161255558e-01
1.090000000000000080e+00 -3.183488628351646144e-01
1.100000000000000089e+00 -3.077821307595057232e-01
1.110000000000000098e+00 -2.838268696051842177e-01
1.120000000000000107e+00 -2.458750530965073955e-01
1.130000000000000115e+00 -1.969013874072358672e-01
1.140000000000000124e+00 -1.384241221797504195e-01
1.150000000000000133e+00 -7.337459337764536127e-02
1.159999999999999920e+00 -4.522225716857078415e-03
1.169999999999999929e+00 6.506587958172328767e-02
1.179999999999999938e+00 1.326028063890469511e-01
1.189999999999999947e+00 1.946265984601293630e-01
1.199999999999999956e+00 2.495940224194827806e-01
1.209999999999999964e+00 2.934764979182947209e-01
1.219999999999999973e+00 3.264936151227816330e-01
1.229999999999999982e+00 3.454121220807064851e-01
1.239999999999999991e+00 3.512056456722106312e-01
1.250000000000000000e+00 3.425056515793500345e-01
1.260000000000000009e+00 3.206255520717039009e-01
1.270000000000000018e+00 2.863025046544547814e-01
1.280000000000000027e+00 2.410876593842189441e-01
1.290000000000000036e+00 1.873882927215834715e-01
1.300000000000000044e+00 1.271278820877242144e-01
1.310000000000000053e+00 6.342564990202670394e-02
1.320000000000000062e+00 -1.145578738644004863e-03
1.330000000000000071e+00 -6.390790423862763303e-02
1.340000000000000080e+00 -1.215792705139424335e-01
1.350000000000000089e+00 -1.725601719816868551e-01
1.360000000000000098e+00 -2.137804069007130381e-01
1.370000000000000107e+00 -2.443782798732962169e-01
1.380000000000000115e+00 -2.625458591508665340e-01
1.390000000000000124e+00 -2.678461551754247605e-01
1.400000000000000133e+00 -2.603349947568621148e-01
1.409999999999999920e+00 -2.398735705147852226e-01
1.419999999999999929e+00 -2.083823662339940874e-01
1.429999999999999938e+00 -1.661216297915880657e-01
1.439999999999999947e+00 -1.162882738944322758e-01
1.449999999999999956e+00 -5.982797817710916455e-02
1.459999999999999964e+00 -1.539178786247657679e-04
1.469999999999999973e+00 6.063113448310071540e-02
1.479999999999999982e+00 1.198761489055238660e-01
1.489999999999999991e+00 1.749917398082097286e-01
1.500000000000000000e+00 2.238943990643184612e-01
1.510000000000000009e+00 2.645852569233574370e-01
1.520000000000000018e+00 2.952929345231419256e-01
1.530000000000000027e+00 3.154463685798972739e-01
1.540000000000000036e+00 3.234451274278495325e-01
1.550000000000000044e+00 3.205180360742659884e-01
1.560000000000000053e+00 3.052867550921437578e-01
1.570000000000000062e+00 2.804583941269490621e-01
1.580000000000000071e+00 2.455399935766137687e-01
1.590000000000000080e+00 2.035934383244523693e-01
1.600000000000000089e+00 1.555823980210372381e-01
1.610000000000000098e+00 1.041461064024909039e-01
1.620000000000000107e+00 5.120048320693268429e-02
1.630000000000000115e+00 -9.391786250351214643e-04
1.640000000000000124e+00 -5.034299396581803226e-02
1.650000000000000133e+00 -9.484850058351421143e-02
1.660000000000000142e+00 -1.333899485110154604e-01
1.669999999999999929e+00 -1.638365185923341960e-01
1.679999999999999938e+00 -1.865670420786990635e-01
1.689999999999999947e+00 -1.995057648670546802e-01
1.699999999999999956e+00 -2.043282332284062919e-01
1.709999999999999964e+00 -2.000448919507130663e-01
1.719999999999999973e+00 -1.885381957533499020e-01
1.729999999999999982e+00 -1.702408392720377028e-01
1.739999999999999991e+00 -1.470122436499088359e-01
1.750000000000000000e+00 -1.203050617312714649e-01
1.760000000000000009e+00 -9.197334715888727530e-02
1.770000000000000018e+00 -6.376598826954982258e-02
1.780000000000000027e+00 -3.764042390452658482e-02
1.790000000000000036e+00 -1.484087630065146837e-02
1.800000000000000044e+00 2.475658367022900725e-03
1.810000000000000053e+00 1.411561224094254330e-02
1.820000000000000062e+00 1.804086260152464039e-02
1.830000000000000071e+00 1.493283108180155395e-02
1.840000000000000080e+00 3.688288526380347800e-03
1.850000000000000089e+00 -1.472702854155572179e-02
1.860000000000000098e+00 -4.017562929673061667e-02
1.870000000000000107e+00 -7.154275675557367209e-02
1.880000000000000115e+00 -1.076645074351406384e-01
1.890000000000000124e+00 -1.472704313773043894e-01
1.900000000000000133e+00 -1.887137381871867581e-01
1.910000000000000142e+00 -2.304698265751585762e-01
1.919999999999999929e+00 -2.711143654546400716e-01
1.929999999999999938e+00 -3.087623423462260708e-01
1.939999999999999947e+00 -3.427118530360701021e-01
1.949999999999999956e+00 -3.711774861834635231e-01
1.959999999999999964e+00 -3.940129874786187369e-01
1.969999999999999973e+00 -4.101396148093916505e-01
1.979999999999999982e+00 -4.197289060536064653e-01
1.989999999999999991e+00 -4.227254419605412927e-01
2.000000000000000000e+00 -4.195013834863715041e-01
2.010000000000000231e+00 -4.109696610569942288e-01
2.020000000000000018e+00 -3.976963823067020121e-01
2.030000000000000249e+00 -3.811824547371640559e-01
2.040000000000000036e+00 -3.622584109015131171e-01
2.049999999999999822e+00 -3.424364346232949829e-01
2.060000000000000053e+00 -3.228786869637616519e-01
2.069999999999999840e+00 -3.046268350225805888e-01
2.080000000000000071e+00 -2.888503882526765043e-01
2.089999999999999858e+00 -2.760944076356057209e-01
2.100000000000000089e+00 -2.670412616980916143e-01
2.109999999999999876e+00 -2.618401439408269415e-01
2.120000000000000107e+00 -2.603882798599598813e-01
2.129999999999999893e+00 -2.624647111837182245e-01
2.140000000000000124e+00 -2.672162278902220356e-01
2.149999999999999911e+00 -2.739824409515040360e-01
2.160000000000000142e+00 -2.815218064936380604e-01
2.169999999999999929e+00 -2.886003180049795946e-01
2.180000000000000160e+00 -2.940840818645485411e-01
2.189999999999999947e+00 -2.963186780798459097e-01
2.200000000000000178e+00 -2.944773352363939112e-01
2.209999999999999964e+00 -2.870496142910240467e-01
2.220000000000000195e+00 -2.734306207101869224e-01
2.229999999999999982e+00 -2.528453742418208527e-01
2.240000000000000213e+00 -2.248624188598105089e-01
2.250000000000000000e+00 -1.898018804657526371e-01
2.260000000000000231e+00 -1.474611125392407129e-01
2.270000000000000018e+00 -9.925726774426243959e-02
2.280000000000000249e+00 -4.540686579829859848e-02
2.290000000000000036e+00 1.199978469130820111e-02
2.300000000000000266e+00 7.192855587425954489e-02
2.310000000000000053e+00 1.323070862374307322e-01
2.319999999999999840e+00 1.912803360190446778e-01
2.330000000000000071e+00 2.470463728123030167e-01
2.339999999999999858e+00 2.975774247793274152e-01
2.350000000000000089e+00 3.411749622089935707e-01
2.359999999999999876e+00 3.764577928159447140e-01
2.370000000000000107e+00 4.016800503523575983e-01
2.379999999999999893e+00 4.167669788766917294e-01
2.390000000000000124e+00 4.198880986657991254e-01
2.399999999999999911e+00 4.125898887087116051e-01
2.410000000000000142e+00 3.930981423265404451e-01
2.419999999999999929e+00 3.641535132022227228e-01
2.430000000000000160e+00 3.252352191857693087e-01
2.439999999999999947e+00 2.789828439201719190e-01
2.450000000000000178e+00 2.263913002998038382e-01
2.459999999999999964e+00 1.698611575554196118e-01
2.470000000000000195e+00 1.113172155908651734e-01
2.479999999999999982e+00 5.307391162908402238e-02
2.490000000000000213e+00 -2.885152440294257853e-03
2.500000000000000000e+00 -5.412109029906349983e-02
2.510000000000000231e+00 -9.947907378877685058e-02
2.520000000000000018e+00 -1.362396097836895692e-01
2.530000000000000249e+00 -1.646207875488513162e-01
2.540000000000000036e+00 -1.820169544796291228e-01
2.550000000000000266e+00 -1.896606697383602103e-01
2.560000000000000053e+00 -1.861373600422183971e-01
2.569999999999999840e+00 -1.728543978765744171e-01
2.580000000000000071e+00 -1.499564826444433341e-01
2.589999999999999858e+00 -1.188943298941881194e-01
2.600000000000000089e+00 -8.110363983369330010e-02
2.609999999999999876e+00 -3.812482370331246595e-02
2.620000000000000107e+00 7.953829258811960512e-03
2.629999999999999893e+00 5.533903663939548911e-02
2.640000000000000124e+00 1.021220857242937374e-01
2.649999999999999911e+00 1.460749782997140811e-01
2.660000000000000142e+00 1.861005140406343517e-01
2.669999999999999929e+00 2.199640015529767956e-01
2.680000000000000160e+00 2.472655402144239012e-01
2.689999999999999947e+00 2.664940907191151731e-01
2.700000000000000178e+00 2.776353490584768657e-01
2.709999999999999964e+00 2.803655222482757670e-01
2.720000000000000195e+00 2.748955733470133111e-01
2.729999999999999982e+00 2.621364785479070036e-01
2.740000000000000213e+00 2.425121544705035881e-01
2.750000000000000000e+00 2.178222606356078339e-01
2.760000000000000231e+00 1.888155167342369378e-01
2.770000000000000018e+00 1.575365462765360991e-01
2.780000000000000249e+00 1.252602206814567021e-01
2.790000000000000036e+00 9.362105059409166208e-02
2.800000000000000266e+00 6.419466387043515354e-02
2.810000000000000053e+00 3.808297335823735558e-02
2.819999999999999840e+00 1.655518190010017016e-02
2.830000000000000071e+00 3.458702306784375811e-04
2.839999999999999858e+00 -1.009714324800847773e-02
2.850000000000000089e+00 -1.430418525494297523e-02
2.859999999999999876e+00 -1.285001391688241242e-02
2.870000000000000107e+00 -5.539220771782799209e-03
2.879999999999999893e+00 6.190583761511199087e-03
2.890000000000000124e+00 2.213977101151282448e-02
2.899999999999999911e+00 4.052463359558856892e-02
2.910000000000000142e+00 6.043424064403304236e-02
2.919999999999999929e+00 8.036186977739945281e-02
2.930000000000000160e+00 9.897055670678629735e-02
2.939999999999999947e+00 1.150315784902296162e-01
2.950000000000000178e+00 1.273800154149729025e-01
2.959999999999999964e+00 1.349725274023053090e-01
2.970000000000000195e+00 1.373434422773559260e-01
2.979999999999999982e+00 1.335871729433484867e-01
2.990000000000000213e+00 1.242207374231538847e-01
3.000000000000000000e+00 1.085304782984406607e-01
3.010000000000000231e+00 8.791020686559590513e-02
3.020000000000000018e+00 6.218306012889009138e-02
3.030000000000000249e+00 3.305679523212776139e-02
3.040000000000000036e+00 1.231280423147761149e-03
3.050000000000000266e+00 -3.173312988493597747e-02
3.060000000000000053e+00 -6.455767771922510390e-02
3.070000000000000284e+00 -9.577761461461334336e-02
3.080000000000000071e+00 -1.241308792458791915e-01
3.089999999999999858e+00 -1.481497800333126114e-01
3.100000000000000089e+00 -1.671782678203428685e-01
3.109999999999999876e+00 -1.796795601132143705e-01
3.120000000000000107e+00 -1.860196062768652847e-01
3.129999999999999893e+00 -1.846255421040776945e-01
3.140000000000000124e+00 -1.768035997789354496e-01
3.149999999999999911e+00 -1.617144745442803122e-01
3.160000000000000142e+00 -1.408251584491015396e-01
3.169999999999999929e+00 -1.143656543247093815e-01
3.180000000000000160e+00 -8.376101611184351425e-02
3.189999999999999947e+00 -5.006874827001751155e-02
3.200000000000000178e+00 -1.470542466395259595e-02
3.209999999999999964e+00 2.096147667701935349e-02
3.220000000000000195e+00 5.541957503546324215e-02
3.229999999999999982e+00 8.759992159831536673e-02
3.240000000000000213e+00 1.157927617823598931e-01
3.250000000000000000e+00 1.396942217430119371e-01
3.260000000000000231e+00 1.575691143592613808e-01
3.270000000000000018e+00 1.698227711232788706e-01
3.280000000000000249e+00 1.753636986411008236e-01
3.290000000000000036e+00 1.748259925141585069e-01
3.300000000000000266e+00 1.680829516839092153e-01
3.310000000000000053e+00 1.558770089868636299e-01
3.320000000000000284e+00 1.389659221027158276e-01
3.330000000000000071e+00 1.181928547264715634e-01
3.339999999999999858e+00 9.484483589735567821e-02
3.350000000000000089e+00 6.994133689207961135e-02
3.359999999999999876e+00 4.477703218706124977e-02
3.370000000000000107e+00 2.064641849202903875e-02
3.379999999999999893e+00 -1.599707904256388643e-03
3.390000000000000124e+00 -2.060375785009453328e-02
3.399999999999999911e+00 -3.599380978818535193e-02
3.410000000000000142e+00 -4.681185058757018208e-02
3.419999999999999929e+00 -5.298684907413157841e-02
3.430000000000000160e+00 -5.428680759127783861e-02
3.439999999999999947e+00 -5.084408517734133326e-02
3.450000000000000178e+00 -4.320447670508120730e-02
3.459999999999999964e+00 -3.169624238729262800e-02
3.470000000000000195e+00 -1.742340872287868880e-02
3.479999999999999982e+00 -9.796871573603442920e-04
3.490000000000000213e+00 1.639385451971855576e-02
3.500000000000000000e+00 3.373862852963659120e-02
3.510000000000000231e+00 5.008539287176212024e-02
3.520000000000000018e+00 6.431811269483178606e-02
3.530000000000000249e+00 7.579883460879455193e-02
3.540000000000000036e+00 8.368257319844206454e-02
3.550000000000000266e+00 8.756879110116262688e-02
3.560000000000000053e+00 8.722804917658331936e-02
3.570000000000000284e+00 8.244997940566616002e-02
3.580000000000000071e+00 7.373671733461047151e-02
3.589999999999999858e+00 6.110097007100848826e-02
3.600000000000000089e+00 4.562923127480606605e-02
3.609999999999999876e+00 2.766808411106987456e-02
3.620000000000000107e+00 8.503678935277071693e-03
3.629999999999999893e+00 -1.100166950738733218e-02
3.640000000000000124e+00 -2.976648729438587451e-02
3.649999999999999911e+00 -4.666426241113593582e-02
3.660000000000000142e+00 -6.080030118705290892e-02
3.669999999999999929e+00 -7.124937125060425147e-02
3.680000000000000160e+00 -7.722311231826767264e-02
3.689999999999999947e+00 -7.840099286466760409e-02
3.700000000000000178e+00 -7.406122147642907327e-02
3.709999999999999964e+00 -6.469904614169390278e-02
3.720000000000000195e+00 -4.970227168130687823e-02
3.729999999999999982e+00 -3.028781453721915429e-02
3.740000000000000213e+00 -6.230721588759325844e-03
3.750000000000000000e+00 2.100154093382214371e-02
3.760000000000000231e+00 5.092009558594298713e-02
3.770000000000000018e+00 8.222490305983247427e-02
3.780000000000000249e+00 1.139302144577379883e-01
3.790000000000000036e+00 1.448553897295971615e-01
3.800000000000000266e+00 1.739870063094804409e-01
3.810000000000000053e+00 2.001775229862176320e-01
3.820000000000000284e+00 2.228498858128902249e-01
3.830000000000000071e+00 2.408259771325706178e-01
3.839999999999999858e+00 2.542955791953572242e-01
3.850000000000000089e+00 2.620598370858684967e-01
3.859999999999999876e+00 2.650338144524264083e-01
