# [DEFAULT]
# # input and output specifications
# dataformat = QA
# outputtype = gr
# 
# # PDF calculation setup
# mode = xray
# wavelength = 
# composition = Cl4.0Cr1.0Na1.0
# bgscale = 1.0
# rpoly = 0.9
# qmaxinst = 28
# qmin = 0.0
# qmax = 22
# rmin = 0.0
# rmax = 30.0
# rstep = 0.01
# 
# # End of config --------------------------------------------------------------
# 
# #### start data
# #S 1
# #L r(Å)  G(Å$^$)
# 
0.000000000000000000e+00 0.000000000000000000e+00
1.000000000000000021e-02 -2.228134278150652355e-03
2.000000000000000042e-02 -4.608276937935514538e-03
2.999999999999999889e-02 -7.313347788975280497e-03
4.000000000000000083e-02 -1.040769729149340454e-02
5.000000000000000278e-02 -1.397426354087171786e-02
5.999999999999999778e-02 -1.796995520417617523e-02
7.000000000000000666e-02 -2.231536615713898553e-02
8.000000000000000167e-02 -2.683959990926055444e-02
8.999999999999999667e-02 -3.131892376225455660e-02
1.000000000000000056e-01 -3.542838846718731477e-02
1.100000000000000006e-01 -3.891466836988780736e-02
1.199999999999999956e-01 -4.127679634863117702e-02
1.300000000000000044e-01 -4.238079900049964571e-02
1.400000000000000133e-01 -4.164383990037404809e-02
1.499999999999999944e-01 -3.908754628983033413e-02
1.600000000000000033e-01 -3.429822019812361900e-02
1.700000000000000122e-01 -2.739624919010514442e-02
1.799999999999999933e-01 -1.832136643557771491e-02
1.900000000000000022e-01 -7.313353667263114422e-03
2.000000000000000111e-01 5.288316336189758694e-03
2.099999999999999922e-01 1.906572174778641340e-02
2.200000000000000011e-01 3.339381843631589186e-02
2.300000000000000100e-01 4.758388402115372451e-02
2.399999999999999911e-01 6.099254091096750069e-02
2.500000000000000000e-01 7.256267115235642828e-02
2.600000000000000089e-01 8.188310098299018958e-02
2.700000000000000178e-01 8.780348140863261652e-02
2.800000000000000266e-01 9.008453223822855682e-02
2.899999999999999800e-01 8.788675853093455559e-02
2.999999999999999889e-01 8.110043502541364191e-02
3.099999999999999978e-01 6.952084498559833736e-02
3.200000000000000067e-01 5.318372438713869776e-02
3.300000000000000155e-01 3.265254349635082071e-02
3.400000000000000244e-01 8.214372138133732917e-03
3.500000000000000333e-01 -1.893078553194445582e-02
3.599999999999999867e-01 -4.804636070480462068e-02
3.699999999999999956e-01 -7.768886170955667525e-02
3.800000000000000044e-01 -1.064586506480479366e-01
3.900000000000000133e-01 -1.330779846566177704e-01
4.000000000000000222e-01 -1.557581568028369723e-01
4.100000000000000311e-01 -1.733860946935190106e-01
4.199999999999999845e-01 -1.844044816868448122e-01
4.299999999999999933e-01 -1.877521950158424213e-01
4.400000000000000022e-01 -1.827336233091459428e-01
4.500000000000000111e-01 -1.682990021011216975e-01
4.600000000000000200e-01 -1.450357744719134312e-01
4.700000000000000289e-01 -1.120120862110568632e-01
4.799999999999999822e-01 -7.115735956484220415e-02
4.899999999999999911e-01 -2.194982442701816361e-02
5.000000000000000000e-01 3.287848218296679503e-02
5.100000000000000089e-01 9.250794973303216873e-02
5.200000000000000178e-01 1.543914162249010735e-01
5.300000000000000266e-01 2.165120788769225313e-01
5.400000000000000355e-01 2.763893663149090130e-01
5.500000000000000444e-01 3.316465858032648928e-01
5.600000000000000533e-01 3.796366816081494511e-01
5.700000000000000622e-01 4.186369144049907898e-01
5.799999999999999600e-01 4.456225837983127103e-01
5.899999999999999689e-01 4.604562341261551617e-01
5.999999999999999778e-01 4.596759844661647554e-01
6.099999999999999867e-01 4.450672543623518385e-01
6.199999999999999956e-01 4.136930035184128718e-01
6.300000000000000044e-01 3.683204286888706047e-01
6.400000000000000133e-01 3.079830132061073256e-01
6.500000000000000222e-01 2.354220511582626463e-01
6.600000000000000311e-01 1.518614538221360610e-01
6.700000000000000400e-01 6.007269780657178981e-02
6.800000000000000488e-01 -3.718801938594896994e-02
6.900000000000000577e-01 -1.368390057932620252e-01
7.000000000000000666e-01 -2.357243107107279689e-01
7.099999999999999645e-01 -3.300580173928082117e-01
7.199999999999999734e-01 -4.176383670524679848e-01
7.299999999999999822e-01 -4.936268758198048001e-01
7.399999999999999911e-01 -5.575094404734592946e-01
7.500000000000000000e-01 -6.048271349042252387e-01
7.600000000000000089e-01 -6.358043039075017555e-01
7.700000000000000178e-01 -6.477637952010222300e-01
7.800000000000000266e-01 -6.412238440564169695e-01
7.900000000000000355e-01 -6.159944508529286988e-01
8.000000000000000444e-01 -5.727384109420705638e-01
8.100000000000000533e-01 -5.137439247748396554e-01
8.200000000000000622e-01 -4.399707639205679977e-01
8.300000000000000711e-01 -3.554663361233303953e-01
8.399999999999999689e-01 -2.618941333717902387e-01
8.499999999999999778e-01 -1.637595507337470391e-01
8.599999999999999867e-01 -6.403267055795633378e-02
8.699999999999999956e-01 3.362169945796775888e-02
8.800000000000000044e-01 1.254100775027004455e-01
8.900000000000000133e-01 2.085867226021684007e-01
9.000000000000000222e-01 2.798838326796167508e-01
9.100000000000000311e-01 3.370463983960512167e-01
9.200000000000000400e-01 3.785885434173518749e-01
9.300000000000000488e-01 4.024624006702391399e-01
9.400000000000000577e-01 4.096683430095959255e-01
9.500000000000000666e-01 3.983518698456695595e-01
9.599999999999999645e-01 3.719771249857562467e-01
9.699999999999999734e-01 3.291773728102965202e-01
9.799999999999999822e-01 2.747775269535619458e-01
9.899999999999999911e-01 2.094740531004647133e-01
1.000000000000000000e+00 1.374818126892633496e-01
1.010000000000000009e+00 6.135725828894912637e-02
1.020000000000000018e+00 -1.524212852198192011e-02
1.030000000000000027e+00 -8.917696644590232535e-02
1.040000000000000036e+00 -1.570545269556551660e-01
1.050000000000000044e+00 -2.165451147201056525e-01
1.060000000000000053e+00 -2.642424230497773530e-01
1.070000000000000062e+00 -2.997513329204508636e-01
1.080000000000000071e+00 -3.195537229210751451e-01
1.090000000000000080e+00 -3.255148674235001094e-01
1.100000000000000089e+00 -3.149101887009965739e-01
1.110000000000000098e+00 -2.907841168191426240e-01
1.120000000000000107e+00 -2.525587182369997130e-01
1.130000000000000115e+00 -2.032696694724790143e-01
1.140000000000000124e+00 -1.444849813175408115e-01
1.150000000000000133e+00 -7.919197210766834583e-02
1.159999999999999920e+00 -1.020687439048483663e-02
1.169999999999999929e+00 5.934772326506022877e-02
1.179999999999999938e+00 1.266627210554367722e-01
1.189999999999999947e+00 1.882187961064635262e-01
1.199999999999999956e+00 2.424900596292449140e-01
1.209999999999999964e+00 2.853910447143423457e-01
1.219999999999999973e+00 3.171938650993139097e-01
1.229999999999999982e+00 3.346412232851695978e-01
1.239999999999999991e+00 3.387645125152850545e-01
1.250000000000000000e+00 3.282147166120867876e-01
1.260000000000000009e+00 3.043655048660477425e-01
1.270000000000000018e+00 2.680059208492749367e-01
1.280000000000000027e+00 2.207539232865238232e-01
1.290000000000000036e+00 1.650786567977452490e-01
1.300000000000000044e+00 1.029840738155822222e-01
1.310000000000000053e+00 3.763338312585328554e-02
1.320000000000000062e+00 -2.829959167998830072e-02
1.330000000000000071e+00 -9.213190566558712713e-02
1.340000000000000080e+00 -1.504738315531681525e-01
1.350000000000000089e+00 -2.017513587664654939e-01
1.360000000000000098e+00 -2.428202915060125311e-01
1.370000000000000107e+00 -2.728496937886173423e-01
1.380000000000000115e+00 -2.900131295667678355e-01
1.390000000000000124e+00 -2.939055261580905132e-01
1.400000000000000133e+00 -2.846213411776534752e-01
1.409999999999999920e+00 -2.620574362513833910e-01
1.419999999999999929e+00 -2.282159798746902224e-01
1.429999999999999938e+00 -1.834052664970352853e-01
1.439999999999999947e+00 -1.309197712837292804e-01
1.449999999999999956e+00 -7.177762396328012107e-02
1.459999999999999964e+00 -9.475282782043476654e-03
1.469999999999999973e+00 5.378951665253061537e-02
1.479999999999999982e+00 1.153076284527698170e-01
1.489999999999999991e+00 1.724008296288622455e-01
1.500000000000000000e+00 2.229419145596859275e-01
1.510000000000000009e+00 2.648808881065756182e-01
1.520000000000000018e+00 2.964090633062918534e-01
1.530000000000000027e+00 3.169621729980118263e-01
1.540000000000000036e+00 3.249071426121555306e-01
1.550000000000000044e+00 3.215411554196432875e-01
1.560000000000000053e+00 3.054640242447073661e-01
1.570000000000000062e+00 2.794943574365815198e-01
1.580000000000000071e+00 2.431529232371498761e-01
1.590000000000000080e+00 1.996167817629030949e-01
1.600000000000000089e+00 1.499123338225668012e-01
1.610000000000000098e+00 9.677764765200934372e-02
1.620000000000000107e+00 4.221625511534771169e-02
1.630000000000000115e+00 -1.136602928004136481e-02
1.640000000000000124e+00 -6.196434861695448992e-02
1.650000000000000133e+00 -1.073253314251534779e-01
1.660000000000000142e+00 -1.463549975663072378e-01
1.669999999999999929e+00 -1.768266825513884755e-01
1.679999999999999938e+00 -1.991596682733421941e-01
1.689999999999999947e+00 -2.111808576079232391e-01
1.699999999999999956e+00 -2.146642606292078204e-01
1.709999999999999964e+00 -2.085767678776432044e-01
1.719999999999999973e+00 -1.949033128583785857e-01
1.729999999999999982e+00 -1.741050652127568155e-01
1.739999999999999991e+00 -1.481419715444636798e-01
1.750000000000000000e+00 -1.185482615931462008e-01
1.760000000000000009e+00 -8.728288444500900689e-02
1.770000000000000018e+00 -5.619331793608813713e-02
1.780000000000000027e+00 -2.735706991185462428e-02
1.790000000000000036e+00 -2.090553892674595904e-03
1.800000000000000044e+00 1.730405541144582754e-02
1.810000000000000053e+00 3.062029487038898240e-02
1.820000000000000062e+00 3.566839898184589325e-02
1.830000000000000071e+00 3.316645941950761844e-02
1.840000000000000080e+00 2.191144711244089049e-02
1.850000000000000089e+00 2.918694742782190679e-03
1.860000000000000098e+00 -2.369131654095316813e-02
1.870000000000000107e+00 -5.674669680513969722e-02
1.880000000000000115e+00 -9.501792961063759702e-02
1.890000000000000124e+00 -1.371645961212003551e-01
1.900000000000000133e+00 -1.814163206370023873e-01
1.910000000000000142e+00 -2.261510621173331292e-01
1.919999999999999929e+00 -2.698075813593744932e-01
1.929999999999999938e+00 -3.103564055493199247e-01
1.939999999999999947e+00 -3.469894325752969078e-01
1.949999999999999956e+00 -3.777463454262466880e-01
1.959999999999999964e+00 -4.024087566601542987e-01
1.969999999999999973e+00 -4.197445596905962639e-01
1.979999999999999982e+00 -4.298687190657870527e-01
1.989999999999999991e+00 -4.326448917319489773e-01
2.000000000000000000e+00 -4.283925248542025388e-01
2.010000000000000231e+00 -4.180476309141473723e-01
2.020000000000000018e+00 -4.021272149254046524e-01
2.030000000000000249e+00 -3.822633742025162151e-01
2.040000000000000036e+00 -3.592551372771571327e-01
2.049999999999999822e+00 -3.348210620563513706e-01
2.060000000000000053e+00 -3.101558790867307569e-01
2.069999999999999840e+00 -2.865144196765573303e-01
2.080000000000000071e+00 -2.651901879071335011e-01
2.089999999999999858e+00 -2.469146688772255738e-01
2.100000000000000089e+00 -2.325437025938129065e-01
2.109999999999999876e+00 -2.224054562706679061e-01
2.120000000000000107e+00 -2.165512083278251232e-01
2.129999999999999893e+00 -2.149530607449866293e-01
2.140000000000000124e+00 -2.168257323421226290e-01
2.149999999999999911e+00 -2.217310796085060487e-01
2.160000000000000142e+00 -2.283598757065941898e-01
2.169999999999999929e+00 -2.357304828387277729e-01
2.180000000000000160e+00 -2.425202095211780040e-01
2.189999999999999947e+00 -2.472357704996088201e-01
2.200000000000000178e+00 -2.488559933958463255e-01
2.209999999999999964e+00 -2.458816984741178102e-01
2.220000000000000195e+00 -2.375265665441097795e-01
2.229999999999999982e+00 -2.228930716275668855e-01
2.240000000000000213e+00 -2.013694226388589581e-01
2.250000000000000000e+00 -1.730731426016857977e-01
2.260000000000000231e+00 -1.375964670294440306e-01
2.270000000000000018e+00 -9.615089953599155470e-02
2.280000000000000249e+00 -4.869099598422913650e-02
2.290000000000000036e+00 2.826556579944848255e-03
2.300000000000000266e+00 5.768433064136691685e-02
2.310000000000000053e+00 1.138579177685627164e-01
2.319999999999999840e+00 1.697716917011142801e-01
2.330000000000000071e+00 2.236452821173226246e-01
2.339999999999999858e+00 2.736122990046578329e-01
2.350000000000000089e+00 3.179962585972165301e-01
2.359999999999999876e+00 3.554159448510299524e-01
2.370000000000000107e+00 3.841574725743618912e-01
2.379999999999999893e+00 4.039798060126521539e-01
2.390000000000000124e+00 4.130831769169291956e-01
2.399999999999999911e+00 4.127167971746607544e-01
2.410000000000000142e+00 4.011054966534700061e-01
2.419999999999999929e+00 3.806456579300304122e-01
2.430000000000000160e+00 3.506974088624562613e-01
2.439999999999999947e+00 3.136159805073840401e-01
2.450000000000000178e+00 2.701813056877622188e-01
2.459999999999999964e+00 2.225515722291159793e-01
2.470000000000000195e+00 1.724247383279123857e-01
2.479999999999999982e+00 1.218791365062598386e-01
2.490000000000000213e+00 7.274641150128896561e-02
2.500000000000000000e+00 2.720315622917863704e-02
2.510000000000000231e+00 -1.360315272280819901e-02
2.520000000000000018e+00 -4.726176293869879808e-02
2.530000000000000249e+00 -7.383268766674055961e-02
2.540000000000000036e+00 -9.100983011009214363e-02
2.550000000000000266e+00 -9.978758245026636553e-02
2.560000000000000053e+00 -9.891138828058669563e-02
2.569999999999999840e+00 -8.958504485288423802e-02
2.580000000000000071e+00 -7.194309888772948414e-02
2.589999999999999858e+00 -4.727305590025394910e-02
2.600000000000000089e+00 -1.686308528839011722e-02
2.609999999999999876e+00 1.788153115308219188e-02
2.620000000000000107e+00 5.509947279568191969e-02
2.629999999999999893e+00 9.312908637992327321e-02
2.640000000000000124e+00 1.302973935788492299e-01
2.649999999999999911e+00 1.645338380839327097e-01
2.660000000000000142e+00 1.949233734594061906e-01
2.669999999999999929e+00 2.194185362408841988e-01
2.680000000000000160e+00 2.377330023064540832e-01
2.689999999999999947e+00 2.485246315194863664e-01
2.700000000000000178e+00 2.518589401288912621e-01
2.709999999999999964e+00 2.475129350320750266e-01
2.720000000000000195e+00 2.357725112199998418e-01
2.729999999999999982e+00 2.175534430259789542e-01
2.740000000000000213e+00 1.933679792557442823e-01
2.750000000000000000e+00 1.649199207720398741e-01
2.760000000000000231e+00 1.330670336341358284e-01
2.770000000000000018e+00 9.968226043088776467e-02
2.780000000000000249e+00 6.613931920657406538e-02
2.790000000000000036e+00 3.389455293740758351e-02
2.800000000000000266e+00 4.559594066226222570e-03
2.810000000000000053e+00 -2.088819995783695871e-02
2.819999999999999840e+00 -4.120088666079166351e-02
2.830000000000000071e+00 -5.571871552713986847e-02
2.839999999999999858e+00 -6.404721532475282642e-02
2.850000000000000089e+00 -6.574912641335385610e-02
2.859999999999999876e+00 -6.146508784389739799e-02
2.870000000000000107e+00 -5.099734197211944903e-02
2.879999999999999893e+00 -3.585151761093323397e-02
2.890000000000000124e+00 -1.619672143975530582e-02
2.899999999999999911e+00 6.121508488427075158e-03
2.910000000000000142e+00 3.022332147286053983e-02
2.919999999999999929e+00 5.456316339987608149e-02
2.930000000000000160e+00 7.782036689727848955e-02
2.939999999999999947e+00 9.874352884635871630e-02
2.950000000000000178e+00 1.161626170518382101e-01
2.959999999999999964e+00 1.290177224856322025e-01
2.970000000000000195e+00 1.368133116125234972e-01
2.979999999999999982e+00 1.386219943997002990e-01
2.990000000000000213e+00 1.349097620550886167e-01
3.000000000000000000e+00 1.249218056378274266e-01
3.010000000000000231e+00 1.099923544332426228e-01
3.020000000000000018e+00 8.986985889959181462e-02
3.030000000000000249e+00 6.620617516147081494e-02
3.040000000000000036e+00 3.960151147500593632e-02
3.050000000000000266e+00 1.155783007014891256e-02
3.060000000000000053e+00 -1.674512958382961755e-02
3.070000000000000284e+00 -4.391466090028140618e-02
3.080000000000000071e+00 -6.875571229084487257e-02
3.089999999999999858e+00 -8.989661910907653652e-02
3.100000000000000089e+00 -1.066866896186013797e-01
3.109999999999999876e+00 -1.177152034469937381e-01
3.120000000000000107e+00 -1.232708066657575430e-01
3.129999999999999893e+00 -1.219353242572305401e-01
3.140000000000000124e+00 -1.148707092548169328e-01
3.149999999999999911e+00 -1.013434200471330787e-01
3.160000000000000142e+00 -8.268589786787901297e-02
3.169999999999999929e+00 -5.914627727502246024e-02
3.180000000000000160e+00 -3.203838187712765295e-02
3.189999999999999947e+00 -2.358849959466179785e-03
3.200000000000000178e+00 2.857122086352335832e-02
3.209999999999999964e+00 5.949552751901285991e-02
3.220000000000000195e+00 8.899552595289075829e-02
3.229999999999999982e+00 1.161245341396309055e-01
3.240000000000000213e+00 1.392819112804397907e-01
3.250000000000000000e+00 1.582575333517317329e-01
3.260000000000000231e+00 1.714478878084422231e-01
3.270000000000000018e+00 1.793073111525393670e-01
3.280000000000000249e+00 1.808661534966343187e-01
3.290000000000000036e+00 1.767844659444244015e-01
3.300000000000000266e+00 1.670121402844424174e-01
3.310000000000000053e+00 1.523105310424046344e-01
3.320000000000000284e+00 1.334481979599876078e-01
3.330000000000000071e+00 1.112888192451243902e-01
3.339999999999999858e+00 8.706127077518180379e-02
3.350000000000000089e+00 6.180739783976677698e-02
3.359999999999999876e+00 3.670839913407556582e-02
3.370000000000000107e+00 1.307603416302234242e-02
3.379999999999999893e+00 -8.373526267920391661e-03
3.390000000000000124e+00 -2.630464377250916336e-02
3.399999999999999911e+00 -4.045303243562808210e-02
3.410000000000000142e+00 -4.991754440858843511e-02
3.419999999999999929e+00 -5.470837827238569234e-02
3.430000000000000160e+00 -5.465729120392027324e-02
3.439999999999999947e+00 -4.996128981485249004e-02
3.450000000000000178e+00 -4.121007708760903582e-02
3.459999999999999964e+00 -2.878848062720572309e-02
3.470000000000000195e+00 -1.380702518970045554e-02
3.479999999999999982e+00 3.087493095992300228e-03
3.490000000000000213e+00 2.068740850947264898e-02
3.500000000000000000e+00 3.799320669435531095e-02
3.510000000000000231e+00 5.408925091052477208e-02
3.520000000000000018e+00 6.785055426825287173e-02
3.530000000000000249e+00 7.868803052791728536e-02
3.540000000000000036e+00 8.577702377995276295e-02
3.550000000000000266e+00 8.875829127238372973e-02
3.560000000000000053e+00 8.743662545599122093e-02
3.570000000000000284e+00 8.163557846119695594e-02
3.580000000000000071e+00 7.188842905103441649e-02
3.589999999999999858e+00 5.823503132499610602e-02
3.600000000000000089e+00 4.177673546237925528e-02
3.609999999999999876e+00 2.287917170278310972e-02
3.620000000000000107e+00 2.823099613812992542e-03
3.629999999999999893e+00 -1.752669139963996398e-02
3.640000000000000124e+00 -3.710760787674836220e-02
3.649999999999999911e+00 -5.481095069568145406e-02
3.660000000000000142e+00 -6.977055657948992573e-02
3.669999999999999929e+00 -8.109270628194670261e-02
3.680000000000000160e+00 -8.802728952604485513e-02
3.689999999999999947e+00 -9.028480655358821216e-02
3.700000000000000178e+00 -8.719307982792473544e-02
3.709999999999999964e+00 -7.926067806787556735e-02
3.720000000000000195e+00 -6.593724575291048939e-02
3.729999999999999982e+00 -4.842320026570622049e-02
3.740000000000000213e+00 -2.655635679378410760e-02
3.750000000000000000e+00 -1.765410247955030449e-03
3.760000000000000231e+00 2.542756708135473012e-02
3.770000000000000018e+00 5.376380005301367032e-02
3.780000000000000249e+00 8.226558934705380244e-02
3.790000000000000036e+00 1.097968604348259630e-01
3.800000000000000266e+00 1.353882777152583816e-01
3.810000000000000053e+00 1.579459745529218917e-01
3.820000000000000284e+00 1.769565933173289640e-01
3.830000000000000071e+00 1.913148270352290903e-01
3.839999999999999858e+00 2.012687981859244968e-01
3.850000000000000089e+00 2.057237246855040114e-01
3.859999999999999876e+00 2.056281532362057851e-01
