# [DEFAULT]
# # input and output specifications
# dataformat = QA
# outputtype = gr
# 
# # PDF calculation setup
# mode = xray
# wavelength = 
# composition = Cl4.0Cr1.0Na1.0
# bgscale = 1.0
# rpoly = 0.9
# qmaxinst = 28
# qmin = 0.0
# qmax = 22
# rmin = 0.0
# rmax = 30.0
# rstep = 0.01
# 
# # End of config --------------------------------------------------------------
# 
# #### start data
# #S 1
# #L r(Å)  G(Å$^$)
# 
0.000000000000000000e+00 0.000000000000000000e+00
1.000000000000000021e-02 -2.812918894385678555e-03
2.000000000000000042e-02 -5.748118415935324355e-03
2.999999999999999889e-02 -8.942241913944295323e-03
4.000000000000000083e-02 -1.244075253511497253e-02
5.000000000000000278e-02 -1.629688095162290865e-02
5.999999999999999778e-02 -2.045659557329711914e-02
7.000000000000000666e-02 -2.482918922207437082e-02
8.000000000000000167e-02 -2.923900831887604745e-02
8.999999999999999667e-02 -3.347434665369092982e-02
1.000000000000000056e-01 -3.721224175327612904e-02
1.100000000000000006e-01 -4.023116924434717162e-02
1.199999999999999956e-01 -4.204184099701258059e-02
1.300000000000000044e-01 -4.255035057039503743e-02
1.400000000000000133e-01 -4.120031813312639846e-02
1.499999999999999944e-01 -3.804807913356134108e-02
1.600000000000000033e-01 -3.271555673625414079e-02
1.700000000000000122e-01 -2.534973453396477394e-02
1.799999999999999933e-01 -1.592069697997500199e-02
1.900000000000000022e-01 -4.688803689184983456e-03
2.000000000000000111e-01 7.994821786213511874e-03
2.099999999999999922e-01 2.169689145863760646e-02
2.200000000000000011e-01 3.580626417423182772e-02
2.300000000000000100e-01 4.962595728200138584e-02
2.399999999999999911e-01 6.254983544321197908e-02
2.500000000000000000e-01 7.352448676407402628e-02
2.600000000000000089e-01 8.218672628362122534e-02
2.700000000000000178e-01 8.741234861118561683e-02
2.800000000000000266e-01 8.900444596243486939e-02
2.899999999999999800e-01 8.616362346603605171e-02
2.999999999999999889e-01 7.881814183510726934e-02
3.099999999999999978e-01 6.679942451735935982e-02
3.200000000000000067e-01 5.017891709655052102e-02
3.300000000000000155e-01 2.953521512627856754e-02
3.400000000000000244e-01 5.189249545753970606e-03
3.500000000000000333e-01 -2.167570914671021476e-02
3.599999999999999867e-01 -5.029433594199483187e-02
3.699999999999999956e-01 -7.926960520436344970e-02
3.800000000000000044e-01 -1.071943746653215568e-01
3.900000000000000133e-01 -1.328483857978393357e-01
4.000000000000000222e-01 -1.544688463185323879e-01
4.100000000000000311e-01 -1.709992986425900585e-01
4.199999999999999845e-01 -1.809319625144935328e-01
4.299999999999999933e-01 -1.832643414124366377e-01
4.400000000000000022e-01 -1.773523794200191350e-01
4.500000000000000111e-01 -1.622115239767340233e-01
4.600000000000000200e-01 -1.384586152495823619e-01
4.700000000000000289e-01 -1.052368063160735723e-01
4.799999999999999822e-01 -6.446261628624191942e-02
4.899999999999999911e-01 -1.569784415837973193e-02
5.000000000000000000e-01 3.837916781633401997e-02
5.100000000000000089e-01 9.689904193683004929e-02
5.200000000000000178e-01 1.573731003927615890e-01
5.300000000000000266e-01 2.177866515670177361e-01
5.400000000000000355e-01 2.757193118264048004e-01
5.500000000000000444e-01 3.288416486248342818e-01
5.600000000000000533e-01 3.745721328557111152e-01
5.700000000000000622e-01 4.112597760286229587e-01
5.799999999999999600e-01 4.359587289185198888e-01
5.899999999999999689e-01 4.485980227922775621e-01
5.999999999999999778e-01 4.458171370994143401e-01
6.099999999999999867e-01 4.294359825139624776e-01
6.199999999999999956e-01 3.966322262300123191e-01
6.300000000000000044e-01 3.501757710257260015e-01
6.400000000000000133e-01 2.891901432284994522e-01
6.500000000000000222e-01 2.164090952604098284e-01
6.600000000000000311e-01 1.330945981513853849e-01
6.700000000000000400e-01 4.200740074610722491e-02
6.800000000000000488e-01 -5.411953938865828040e-02
6.900000000000000577e-01 -1.522180426392822361e-01
7.000000000000000666e-01 -2.492090912550818660e-01
7.099999999999999645e-01 -3.413294815435230500e-01
7.199999999999999734e-01 -4.264850856462331641e-01
7.299999999999999822e-01 -4.998805799603178723e-01
7.399999999999999911e-01 -5.611071486447468670e-01
7.500000000000000000e-01 -6.057810387989702727e-01
7.600000000000000089e-01 -6.342049580638877693e-01
7.700000000000000178e-01 -6.437857227857066711e-01
7.800000000000000266e-01 -6.351025609930085469e-01
7.900000000000000355e-01 -6.080253707508471717e-01
8.000000000000000444e-01 -5.632697502086606578e-01
8.100000000000000533e-01 -5.031356013031045293e-01
8.200000000000000622e-01 -4.286319014545373896e-01
8.300000000000000711e-01 -3.437600125193275846e-01
8.399999999999999689e-01 -2.502270079506644374e-01
8.499999999999999778e-01 -1.524466682084342495e-01
8.599999999999999867e-01 -5.340380504553254859e-02
8.699999999999999956e-01 4.333672502241048274e-02
8.800000000000000044e-01 1.340133831294900990e-01
8.900000000000000133e-01 2.159658852510059346e-01
9.000000000000000222e-01 2.859886667827838957e-01
9.100000000000000311e-01 3.419018782921300348e-01
9.200000000000000400e-01 3.822823894667835565e-01
9.300000000000000488e-01 4.051534287690800595e-01
9.400000000000000577e-01 4.115504926784202544e-01
9.500000000000000666e-01 3.996904904904022837e-01
9.599999999999999645e-01 3.730259192819107561e-01
9.699999999999999734e-01 3.302612145028493429e-01
9.799999999999999822e-01 2.761674001778181564e-01
9.899999999999999911e-01 2.114761806262638322e-01
1.000000000000000000e+00 1.403423373639108296e-01
1.010000000000000009e+00 6.530992577779545782e-02
1.020000000000000018e+00 -1.002385238841525458e-02
1.030000000000000027e+00 -8.256741748870655151e-02
1.040000000000000036e+00 -1.489896622755584599e-01
1.050000000000000044e+00 -2.070208901775034693e-01
1.060000000000000053e+00 -2.533220759517145204e-01
1.070000000000000062e+00 -2.875432422029803869e-01
1.080000000000000071e+00 -3.062432475038800450e-01
1.090000000000000080e+00 -3.112981413619128057e-01
1.100000000000000089e+00 -3.000586491920498311e-01
1.110000000000000098e+00 -2.755506911912147250e-01
1.120000000000000107e+00 -2.372407553918652046e-01
1.130000000000000115e+00 -1.881357222143880403e-01
1.140000000000000124e+00 -1.298039296544143129e-01
1.150000000000000133e+00 -6.519784680084290962e-02
1.159999999999999920e+00 2.905512906031824938e-03
1.169999999999999929e+00 7.142542355192418868e-02
1.179999999999999938e+00 1.376142539434537237e-01
1.189999999999999947e+00 1.980062409928126932e-01
1.199999999999999956e+00 2.511339915939974632e-01
1.209999999999999964e+00 2.929827658608170626e-01
1.219999999999999973e+00 3.238599888969924678e-01
1.229999999999999982e+00 3.405807126661136719e-01
1.239999999999999991e+00 3.441917123140346702e-01
1.250000000000000000e+00 3.333934704837578922e-01
1.260000000000000009e+00 3.095627723609435944e-01
1.270000000000000018e+00 2.734987152771407581e-01
1.280000000000000027e+00 2.268136028688626238e-01
1.290000000000000036e+00 1.719440700323367766e-01
1.300000000000000044e+00 1.108780551583795904e-01
1.310000000000000053e+00 4.671474885781749797e-02
1.320000000000000062e+00 -1.790456254888487392e-02
1.330000000000000071e+00 -8.036992652390458070e-02
1.340000000000000080e+00 -1.373489788299943892e-01
1.350000000000000089e+00 -1.873274782943234185e-01
1.360000000000000098e+00 -2.272319875210737361e-01
1.370000000000000107e+00 -2.562766797462050494e-01
1.380000000000000115e+00 -2.726937531410057458e-01
1.390000000000000124e+00 -2.761149147760869615e-01
1.400000000000000133e+00 -2.666581571817701612e-01
1.409999999999999920e+00 -2.442525611560637244e-01
1.419999999999999929e+00 -2.108766990015783771e-01
1.429999999999999938e+00 -1.668653446639065674e-01
1.439999999999999947e+00 -1.154445997127335061e-01
1.449999999999999956e+00 -5.764658892131094281e-02
1.459999999999999964e+00 3.123627848942201173e-03
1.469999999999999973e+00 6.469287476585387775e-02
1.479999999999999982e+00 1.244317434854683158e-01
1.489999999999999991e+00 1.797182938124315676e-01
1.500000000000000000e+00 2.284944503552820416e-01
1.510000000000000009e+00 2.687718703786398100e-01
1.520000000000000018e+00 2.988059018513538057e-01
1.530000000000000027e+00 3.180718292155199634e-01
1.540000000000000036e+00 3.249999424585043872e-01
1.550000000000000044e+00 3.208842948880764046e-01
1.560000000000000053e+00 3.043875231326770847e-01
1.570000000000000062e+00 2.782789238908478513e-01
1.580000000000000071e+00 2.421222899756816649e-01
1.590000000000000080e+00 1.990231384313382590e-01
1.600000000000000089e+00 1.500053261815052774e-01
1.610000000000000098e+00 9.773707879067247695e-02
1.620000000000000107e+00 4.417795965199132480e-02
1.630000000000000115e+00 -8.335017732754933240e-03
1.640000000000000124e+00 -5.785984489146170362e-02
1.650000000000000133e+00 -1.022154430295418026e-01
1.660000000000000142e+00 -1.403610026464725269e-01
1.669999999999999929e+00 -1.701505693429965493e-01
1.679999999999999938e+00 -1.920200911465253790e-01
1.689999999999999947e+00 -2.038871034925819614e-01
1.699999999999999956e+00 -2.074986439279123129e-01
1.709999999999999964e+00 -2.018859559194817743e-01
1.719999999999999973e+00 -1.889920142084693944e-01
1.729999999999999982e+00 -1.692927214275914138e-01
1.739999999999999991e+00 -1.446992852806193164e-01
1.750000000000000000e+00 -1.167110970571464956e-01
1.760000000000000009e+00 -8.723103498967796354e-02
1.770000000000000018e+00 -5.803882225389073168e-02
1.780000000000000027e+00 -3.114276462994215733e-02
1.790000000000000036e+00 -7.786935167521069970e-03
1.800000000000000044e+00 9.816861906842742902e-03
1.810000000000000053e+00 2.150977785861354213e-02
1.820000000000000062e+00 2.520880653882216424e-02
1.830000000000000071e+00 2.164719243740710966e-02
1.840000000000000080e+00 9.710058612503080083e-03
1.850000000000000089e+00 -9.587234999680126907e-03
1.860000000000000098e+00 -3.608377616833184642e-02
1.870000000000000107e+00 -6.861623255162561941e-02
1.880000000000000115e+00 -1.059744909400814616e-01
1.890000000000000124e+00 -1.468353532319262578e-01
1.900000000000000133e+00 -1.895016720449964054e-01
1.910000000000000142e+00 -2.323845726925282129e-01
1.919999999999999929e+00 -2.740264435479321525e-01
1.929999999999999938e+00 -3.124595332881320853e-01
1.939999999999999947e+00 -3.469764762998594487e-01
1.949999999999999956e+00 -3.757130109416922936e-01
1.959999999999999964e+00 -3.985280852463037871e-01
1.969999999999999973e+00 -4.142917279429117472e-01
1.979999999999999982e+00 -4.231820595775923066e-01
1.989999999999999991e+00 -4.251330274693368994e-01
2.000000000000000000e+00 -4.205218344286452692e-01
2.010000000000000231e+00 -4.102940009893809581e-01
2.020000000000000018e+00 -3.950217372503575519e-01
2.030000000000000249e+00 -3.762738123365689802e-01
2.040000000000000036e+00 -3.548959257180925864e-01
2.049999999999999822e+00 -3.324845356153449116e-01
2.060000000000000053e+00 -3.102418141002019070e-01
2.069999999999999840e+00 -2.892862224140685945e-01
2.080000000000000071e+00 -2.708535602794710506e-01
2.089999999999999858e+00 -2.555533435713339130e-01
2.100000000000000089e+00 -2.441401048883567182e-01
2.109999999999999876e+00 -2.368252563832583257e-01
2.120000000000000107e+00 -2.335582041616158233e-01
2.129999999999999893e+00 -2.341872048585486588e-01
2.140000000000000124e+00 -2.378690638646073496e-01
2.149999999999999911e+00 -2.440249632376779165e-01
2.160000000000000142e+00 -2.513671766701837118e-01
2.169999999999999929e+00 -2.587547049820970724e-01
2.180000000000000160e+00 -2.649625172374617255e-01
2.189999999999999947e+00 -2.683908404370463074e-01
2.200000000000000178e+00 -2.681257442001183100e-01
2.209999999999999964e+00 -2.626523185804281457e-01
2.220000000000000195e+00 -2.512875312447782061e-01
2.229999999999999982e+00 -2.332020568008609240e-01
2.240000000000000213e+00 -2.078882470290146500e-01
2.250000000000000000e+00 -1.755845186357569698e-01
2.260000000000000231e+00 -1.360018133509405258e-01
2.270000000000000018e+00 -9.047859840567773482e-02
2.280000000000000249e+00 -3.912055413839711504e-02
2.290000000000000036e+00 1.602918604700400221e-02
2.300000000000000266e+00 7.407047786816153834e-02
2.310000000000000053e+00 1.329444032840840506e-01
2.319999999999999840e+00 1.909139795518524640e-01
2.330000000000000071e+00 2.461835690751855432e-01
2.339999999999999858e+00 2.967943569385817493e-01
2.350000000000000089e+00 3.410577062971215101e-01
2.359999999999999876e+00 3.775939325427901672e-01
2.370000000000000107e+00 4.046739921348664337e-01
2.379999999999999893e+00 4.221536424770193086e-01
2.390000000000000124e+00 4.282205389441163246e-01
2.399999999999999911e+00 4.242934082260582662e-01
2.410000000000000142e+00 4.086031322600745530e-01
2.419999999999999929e+00 3.837389271427510407e-01
2.430000000000000160e+00 3.491307517822389572e-01
2.439999999999999947e+00 3.072899241612265797e-01
2.450000000000000178e+00 2.591145175110888821e-01
2.459999999999999964e+00 2.068915265550773652e-01
2.470000000000000195e+00 1.524376517005033294e-01
2.479999999999999982e+00 9.795129433773561156e-02
2.490000000000000213e+00 4.533727129396668276e-02
2.500000000000000000e+00 -3.100534482232773087e-03
2.510000000000000231e+00 -4.622071213023806746e-02
2.520000000000000018e+00 -8.146923543802736534e-02
2.530000000000000249e+00 -1.089972354985238728e-01
2.540000000000000036e+00 -1.263680014277396846e-01
2.550000000000000266e+00 -1.347052566342536173e-01
2.560000000000000053e+00 -1.326964907373864577e-01
2.569999999999999840e+00 -1.216561897222933480e-01
2.580000000000000071e+00 -1.017411787198800321e-01
2.589999999999999858e+00 -7.432885612279468979e-02
2.600000000000000089e+00 -4.078666427917414933e-02
2.609999999999999876e+00 -2.595091244086928511e-03
2.620000000000000107e+00 3.828097406121149654e-02
2.629999999999999893e+00 8.010871467486163633e-02
2.640000000000000124e+00 1.211217029956785513e-01
2.649999999999999911e+00 1.591711838136287971e-01
2.660000000000000142e+00 1.932828957502310541e-01
2.669999999999999929e+00 2.213304523019992975e-01
2.680000000000000160e+00 2.429998083554556487e-01
2.689999999999999947e+00 2.568904391852560587e-01
2.700000000000000178e+00 2.630551085202672557e-01
2.709999999999999964e+00 2.612477086601067144e-01
2.720000000000000195e+00 2.517447288257591564e-01
2.729999999999999982e+00 2.354767100073710817e-01
2.740000000000000213e+00 2.129430496385474048e-01
2.750000000000000000e+00 1.858931837634733852e-01
2.760000000000000231e+00 1.551654877069333915e-01
2.770000000000000018e+00 1.226943813666924177e-01
2.780000000000000249e+00 8.983434037464964328e-02
2.790000000000000036e+00 5.809529049940088258e-02
2.800000000000000266e+00 2.907986403433411582e-02
2.810000000000000053e+00 3.794799548617736919e-03
2.819999999999999840e+00 -1.651492389240681591e-02
2.830000000000000071e+00 -3.118278837208192725e-02
2.839999999999999858e+00 -3.981564743057883909e-02
2.850000000000000089e+00 -4.199088546384851378e-02
2.859999999999999876e+00 -3.834660517550882858e-02
2.870000000000000107e+00 -2.872052908184736034e-02
2.879999999999999893e+00 -1.460421463516729454e-02
2.890000000000000124e+00 3.777780206833162256e-03
2.899999999999999911e+00 2.460806921764183489e-02
2.910000000000000142e+00 4.695650026701016916e-02
2.919999999999999929e+00 6.930364922157766783e-02
2.930000000000000160e+00 9.030323223900794949e-02
2.939999999999999947e+00 1.087262296385445443e-01
2.950000000000000178e+00 1.234092969948556578e-01
2.959999999999999964e+00 1.333149219651662276e-01
2.970000000000000195e+00 1.379852624210590462e-01
2.979999999999999982e+00 1.365223137115191554e-01
2.990000000000000213e+00 1.294500019750486619e-01
3.000000000000000000e+00 1.160599526665837405e-01
3.010000000000000231e+00 9.774610442081285711e-02
3.020000000000000018e+00 7.432907442115603558e-02
3.030000000000000249e+00 4.750792133861502647e-02
3.040000000000000036e+00 1.796720832809873408e-02
3.050000000000000266e+00 -1.275082106756314504e-02
3.060000000000000053e+00 -4.339486757164752462e-02
3.070000000000000284e+00 -7.253033143596246402e-02
3.080000000000000071e+00 -9.892714778418515431e-02
3.089999999999999858e+00 -1.211641090141438726e-01
3.100000000000000089e+00 -1.386082681331330946e-01
3.109999999999999876e+00 -1.497905924694515611e-01
3.120000000000000107e+00 -1.550748034678367804e-01
3.129999999999999893e+00 -1.529807411853548182e-01
3.140000000000000124e+00 -1.447829082268097811e-01
3.149999999999999911e+00 -1.297261364471697098e-01
3.160000000000000142e+00 -1.092437013336571561e-01
3.169999999999999929e+00 -8.361328962681899291e-02
3.180000000000000160e+00 -5.423307352951660387e-02
3.189999999999999947e+00 -2.216130275626976634e-02
3.200000000000000178e+00 1.120602394311623687e-02
3.209999999999999964e+00 4.454632135467626042e-02
3.220000000000000195e+00 7.636692791328188179e-02
3.229999999999999982e+00 1.056772780631153458e-01
3.240000000000000213e+00 1.307963945337984324e-01
3.250000000000000000e+00 1.515100537542006243e-01
3.260000000000000231e+00 1.661355496639331797e-01
3.270000000000000018e+00 1.751548556865311912e-01
3.280000000000000249e+00 1.775503873740145733e-01
3.290000000000000036e+00 1.740162276750050752e-01
3.300000000000000266e+00 1.644977846999859106e-01
3.310000000000000053e+00 1.497912091215752584e-01
3.320000000000000284e+00 1.306987370114315317e-01
3.330000000000000071e+00 1.081193170014009414e-01
3.339999999999999858e+00 8.333803336922331051e-02
3.350000000000000089e+00 5.743589162049359681e-02
3.359999999999999876e+00 3.165146962731031632e-02
3.370000000000000107e+00 7.344061575859565580e-03
3.379999999999999893e+00 -1.473022879240451499e-02
3.390000000000000124e+00 -3.318534005432351858e-02
3.399999999999999911e+00 -4.773784794905053946e-02
3.410000000000000142e+00 -5.745003848283086745e-02
3.419999999999999929e+00 -6.232643680032099592e-02
3.430000000000000160e+00 -6.218874414738375517e-02
3.439999999999999947e+00 -5.723728155037251936e-02
3.450000000000000178e+00 -4.808052428941684414e-02
3.459999999999999964e+00 -3.511475123386609276e-02
3.470000000000000195e+00 -1.949014953774015624e-02
3.479999999999999982e+00 -1.875323662083059305e-03
3.490000000000000213e+00 1.647704952986131857e-02
3.500000000000000000e+00 3.453192879470615151e-02
3.510000000000000231e+00 5.133846914103051828e-02
3.520000000000000018e+00 6.573048684999581448e-02
3.530000000000000249e+00 7.709587874091192172e-02
3.540000000000000036e+00 8.457928699812825024e-02
3.550000000000000266e+00 8.780766015446060668e-02
3.560000000000000053e+00 8.657859485523394794e-02
3.570000000000000284e+00 8.071001944781443227e-02
3.580000000000000071e+00 7.075582813311104280e-02
3.589999999999999858e+00 5.676073291952053040e-02
3.600000000000000089e+00 3.986848730272894714e-02
3.609999999999999876e+00 2.046564566579178041e-02
3.620000000000000107e+00 -1.176365724681991028e-04
3.629999999999999893e+00 -2.097370870840247273e-02
3.640000000000000124e+00 -4.099719136346393483e-02
3.649999999999999911e+00 -5.902625058735708891e-02
3.660000000000000142e+00 -7.415663064431507467e-02
3.669999999999999929e+00 -8.545136785251575273e-02
3.680000000000000160e+00 -9.212315009398668042e-02
3.689999999999999947e+00 -9.386738163816597813e-02
3.700000000000000178e+00 -8.997376994873208800e-02
3.709999999999999964e+00 -8.097475064494749630e-02
3.720000000000000195e+00 -6.628319848755336030e-02
3.729999999999999982e+00 -4.715960581838145316e-02
3.740000000000000213e+00 -2.342149951054106616e-02
3.750000000000000000e+00 3.428354553387510939e-03
3.760000000000000231e+00 3.285090561486642136e-02
3.770000000000000018e+00 6.352059294822853808e-02
3.780000000000000249e+00 9.441245486448633650e-02
3.790000000000000036e+00 1.243274020414287806e-01
3.800000000000000266e+00 1.522401242732650262e-01
3.810000000000000053e+00 1.769913896599036307e-01
3.820000000000000284e+00 1.980273303901102788e-01
3.830000000000000071e+00 2.141690023330577730e-01
3.839999999999999858e+00 2.256603898554827292e-01
3.850000000000000089e+00 2.313218439202544274e-01
3.859999999999999876e+00 2.321370873326311368e-01
