# [DEFAULT]
# # input and output specifications
# dataformat = QA
# outputtype = gr
# 
# # PDF calculation setup
# mode = xray
# wavelength = 
# composition = Cl4.0Cr1.0Na1.0
# bgscale = 1.0
# rpoly = 0.9
# qmaxinst = 28
# qmin = 0.0
# qmax = 22
# rmin = 0.0
# rmax = 30.0
# rstep = 0.01
# 
# # End of config --------------------------------------------------------------
# 
# #### start data
# #S 1
# #L r(Å)  G(Å$^$)
# 
0.000000000000000000e+00 0.000000000000000000e+00
1.000000000000000021e-02 -3.779028478732950665e-03
2.000000000000000042e-02 -7.620450939463613640e-03
2.999999999999999889e-02 -1.158843068755634545e-02
4.000000000000000083e-02 -1.569191199654468988e-02
5.000000000000000278e-02 -1.992753809894799027e-02
5.999999999999999778e-02 -2.422387774629225499e-02
7.000000000000000666e-02 -2.847382883229837916e-02
8.000000000000000167e-02 -3.250110304289551000e-02
8.999999999999999667e-02 -3.612548613940157888e-02
1.000000000000000056e-01 -3.904199299228863079e-02
1.100000000000000006e-01 -4.109666804087627051e-02
1.199999999999999956e-01 -4.184245619282409706e-02
1.300000000000000044e-01 -4.126176623504869412e-02
1.400000000000000133e-01 -3.886890504302026317e-02
1.499999999999999944e-01 -3.477934370088941324e-02
1.600000000000000033e-01 -2.869304048865515752e-02
1.700000000000000122e-01 -2.079636530333327585e-02
1.799999999999999933e-01 -1.111190532091616348e-02
1.900000000000000022e-01 7.753473479088978867e-05
2.000000000000000111e-01 1.241793113523010847e-02
2.099999999999999922e-01 2.547120868068953811e-02
2.200000000000000011e-01 3.867780968000672503e-02
2.300000000000000100e-01 5.135972607633453729e-02
2.399999999999999911e-01 6.299952054038003568e-02
2.500000000000000000e-01 7.259669608505452121e-02
2.600000000000000089e-01 7.988086461889458423e-02
2.700000000000000178e-01 8.381627947598541128e-02
2.800000000000000266e-01 8.427830800504240716e-02
2.899999999999999800e-01 8.055842890864821360e-02
2.999999999999999889e-01 7.263873146796184788e-02
3.099999999999999978e-01 6.040232861416268417e-02
3.200000000000000067e-01 4.395637464887531404e-02
3.300000000000000155e-01 2.386402019671027275e-02
3.400000000000000244e-01 4.573821013205553454e-04
3.500000000000000333e-01 -2.516579563381865503e-02
3.599999999999999867e-01 -5.226871329001210598e-02
3.699999999999999956e-01 -7.958229061653659953e-02
3.800000000000000044e-01 -1.057920543861829848e-01
3.900000000000000133e-01 -1.298049346969274431e-01
4.000000000000000222e-01 -1.500013368901664534e-01
4.100000000000000311e-01 -1.654394326873580012e-01
4.199999999999999845e-01 -1.747510205378849379e-01
4.299999999999999933e-01 -1.770406832841736888e-01
4.400000000000000022e-01 -1.717378936708481019e-01
4.500000000000000111e-01 -1.579572158283984729e-01
4.600000000000000200e-01 -1.362770130523774659e-01
4.700000000000000289e-01 -1.059175330885893662e-01
4.799999999999999822e-01 -6.863343583044148599e-02
4.899999999999999911e-01 -2.400893203297408199e-02
5.000000000000000000e-01 2.551878748011472686e-02
5.100000000000000089e-01 7.919267400225378506e-02
5.200000000000000178e-01 1.347645061171209302e-01
5.300000000000000266e-01 1.904481940817440988e-01
5.400000000000000355e-01 2.440760859050947473e-01
5.500000000000000444e-01 2.935771295307624262e-01
5.600000000000000533e-01 3.366591206265551195e-01
5.700000000000000622e-01 3.718502812752646491e-01
5.799999999999999600e-01 3.965523855606551407e-01
5.899999999999999689e-01 4.106908381084169446e-01
5.999999999999999778e-01 4.113155290958364074e-01
6.099999999999999867e-01 4.000217172821864398e-01
6.199999999999999956e-01 3.743419608801951681e-01
6.300000000000000044e-01 3.367114436465278859e-01
6.400000000000000133e-01 2.863753578206120753e-01
6.500000000000000222e-01 2.257389236335028138e-01
6.600000000000000311e-01 1.559201764872737150e-01
6.700000000000000400e-01 7.934491432583019865e-02
6.800000000000000488e-01 -1.590939254713034934e-03
6.900000000000000577e-01 -8.420132408020655768e-02
7.000000000000000666e-01 -1.658045571978730981e-01
7.099999999999999645e-01 -2.431241295502135080e-01
7.199999999999999734e-01 -3.143567366005928232e-01
7.299999999999999822e-01 -3.753542216204264204e-01
7.399999999999999911e-01 -4.257976776493503923e-01
7.500000000000000000e-01 -4.619329004011216711e-01
7.600000000000000089e-01 -4.840749871848821773e-01
7.700000000000000178e-01 -4.900554447570402150e-01
7.800000000000000266e-01 -4.804513802252567412e-01
7.900000000000000355e-01 -4.552409083771611353e-01
8.000000000000000444e-01 -4.151512771005578251e-01
8.100000000000000533e-01 -3.622436559919443022e-01
8.200000000000000622e-01 -2.975422517045795412e-01
8.300000000000000711e-01 -2.245196156530545883e-01
8.399999999999999689e-01 -1.448545583816988613e-01
8.499999999999999778e-01 -6.229291237250494939e-02
8.599999999999999867e-01 2.037579789218368215e-02
8.699999999999999956e-01 1.001831913569261878e-01
8.800000000000000044e-01 1.737505417208713987e-01
8.900000000000000133e-01 2.388808366372903724e-01
9.000000000000000222e-01 2.927940036937505264e-01
9.100000000000000311e-01 3.336987076187699075e-01
9.200000000000000400e-01 3.604676211382638051e-01
9.300000000000000488e-01 3.714888225330320037e-01
9.400000000000000577e-01 3.678373917619867095e-01
9.500000000000000666e-01 3.480970125450965069e-01
9.599999999999999645e-01 3.154502538264237765e-01
9.699999999999999734e-01 2.689602304538748490e-01
9.799999999999999822e-01 2.129090789081203305e-01
9.899999999999999911e-01 1.481554060921526916e-01
1.000000000000000000e+00 7.840165947513726141e-02
1.010000000000000009e+00 6.051015935304791815e-03
1.020000000000000018e+00 -6.569670113994993677e-02
1.030000000000000027e+00 -1.340542270718005913e-01
1.040000000000000036e+00 -1.960536044021890523e-01
1.050000000000000044e+00 -2.497509599026526694e-01
1.060000000000000053e+00 -2.921685604854337148e-01
1.070000000000000062e+00 -3.231646714930137554e-01
1.080000000000000071e+00 -3.396828448768369757e-01
1.090000000000000080e+00 -3.436084222431032287e-01
1.100000000000000089e+00 -3.326423788404165305e-01
1.110000000000000098e+00 -3.096719051011906920e-01
1.120000000000000107e+00 -2.743432475299825146e-01
1.130000000000000115e+00 -2.294841218384395254e-01
1.140000000000000124e+00 -1.766284428084494984e-01
1.150000000000000133e+00 -1.185319922179647045e-01
1.159999999999999920e+00 -5.776530870911008447e-02
1.169999999999999929e+00 2.808927755644162819e-03
1.179999999999999938e+00 6.072846076651285119e-02
1.189999999999999947e+00 1.127880261434558856e-01
1.199999999999999956e+00 1.577671830460968261e-01
1.209999999999999964e+00 1.919781788897960140e-01
1.219999999999999973e+00 2.158560513761582367e-01
1.229999999999999982e+00 2.265335427938319768e-01
1.239999999999999991e+00 2.250993388866544265e-01
1.250000000000000000e+00 2.104609964969146596e-01
1.260000000000000009e+00 1.839930054279679816e-01
1.270000000000000018e+00 1.465320421232697290e-01
1.280000000000000027e+00 9.966605789629627565e-02
1.290000000000000036e+00 4.569664195647395177e-02
1.300000000000000044e+00 -1.343313747784566706e-02
1.310000000000000053e+00 -7.488324411156506433e-02
1.320000000000000062e+00 -1.360935665530541017e-01
1.330000000000000071e+00 -1.947490354343837660e-01
1.340000000000000080e+00 -2.476693159425518431e-01
1.350000000000000089e+00 -2.935779168908686509e-01
1.360000000000000098e+00 -3.296012007748164718e-01
1.370000000000000107e+00 -3.551177433694465146e-01
1.380000000000000115e+00 -3.685298614514289084e-01
1.390000000000000124e+00 -3.695858149655494862e-01
1.400000000000000133e+00 -3.584763084289430690e-01
1.409999999999999920e+00 -3.352174598360619928e-01
1.419999999999999929e+00 -3.017332497441447270e-01
1.429999999999999938e+00 -2.584207174878178082e-01
1.439999999999999947e+00 -2.083369313446132853e-01
1.449999999999999956e+00 -1.525420431718540470e-01
1.459999999999999964e+00 -9.421906900596138668e-02
1.469999999999999973e+00 -3.548058583390951981e-02
1.479999999999999982e+00 2.123037775237136132e-02
1.489999999999999991e+00 7.341794306978755014e-02
1.500000000000000000e+00 1.191748587997348702e-01
1.510000000000000009e+00 1.566410065051877243e-01
1.520000000000000018e+00 1.841988220331140236e-01
1.530000000000000027e+00 2.013965724861547235e-01
1.540000000000000036e+00 2.067783466440391571e-01
1.550000000000000044e+00 2.016212085394770148e-01
1.560000000000000053e+00 1.846913160089414252e-01
1.570000000000000062e+00 1.586546793550460688e-01
1.580000000000000071e+00 1.231386088611549218e-01
1.590000000000000080e+00 8.111273278891607819e-02
1.600000000000000089e+00 3.358915653711296023e-02
1.610000000000000098e+00 -1.688415719458370018e-02
1.620000000000000107e+00 -6.841686683448469641e-02
1.630000000000000115e+00 -1.187734765851534147e-01
1.640000000000000124e+00 -1.660966103296898921e-01
1.650000000000000133e+00 -2.082906704685283661e-01
1.660000000000000142e+00 -2.443744468891602406e-01
1.669999999999999929e+00 -2.722741859341001880e-01
1.679999999999999938e+00 -2.924341707521581069e-01
1.689999999999999947e+00 -3.028292846126456328e-01
1.699999999999999956e+00 -3.051655095129030548e-01
1.709999999999999964e+00 -2.984898475324054279e-01
1.719999999999999973e+00 -2.846873229704723895e-01
1.729999999999999982e+00 -2.642034969644063702e-01
1.739999999999999991e+00 -2.388860129308406077e-01
1.750000000000000000e+00 -2.101779473655300268e-01
1.760000000000000009e+00 -1.799159477524178985e-01
1.770000000000000018e+00 -1.498273389499776009e-01
1.780000000000000027e+00 -1.218512057464569004e-01
1.790000000000000036e+00 -9.721098029654988426e-02
1.800000000000000044e+00 -7.804615031955217108e-02
1.810000000000000053e+00 -6.453872352338409224e-02
1.820000000000000062e+00 -5.871098418204809960e-02
1.830000000000000071e+00 -5.987835351442449827e-02
1.840000000000000080e+00 -6.913088812064836775e-02
1.850000000000000089e+00 -8.549885689408369405e-02
1.860000000000000098e+00 -1.088302335618205330e-01
1.870000000000000107e+00 -1.379942920092575021e-01
1.880000000000000115e+00 -1.718051439776937528e-01
1.890000000000000124e+00 -2.089498376893899612e-01
1.900000000000000133e+00 -2.477515148412248458e-01
1.910000000000000142e+00 -2.865974428579597388e-01
1.919999999999999929e+00 -3.240372267519038840e-01
1.929999999999999938e+00 -3.580287704607788557e-01
1.939999999999999947e+00 -3.878577145472825727e-01
1.949999999999999956e+00 -4.115459330944030714e-01
1.959999999999999964e+00 -4.289179457966534326e-01
1.969999999999999973e+00 -4.387163528024463632e-01
1.979999999999999982e+00 -4.410540728271657995e-01
1.989999999999999991e+00 -4.357633201406074797e-01
2.000000000000000000e+00 -4.231247441042513824e-01
2.010000000000000231e+00 -4.040549978760586414e-01
2.020000000000000018e+00 -3.790048766018377369e-01
2.030000000000000249e+00 -3.496264846543877258e-01
2.040000000000000036e+00 -3.166403552495959950e-01
2.049999999999999822e+00 -2.818411230303346504e-01
2.060000000000000053e+00 -2.463760060267204954e-01
2.069999999999999840e+00 -2.116150254052905633e-01
2.080000000000000071e+00 -1.788892252846376874e-01
2.089999999999999858e+00 -1.490660858295352609e-01
2.100000000000000089e+00 -1.231282100349190001e-01
2.109999999999999876e+00 -1.015786790392219918e-01
2.120000000000000107e+00 -8.464512549380777406e-02
2.129999999999999893e+00 -7.254029530658873126e-02
2.140000000000000124e+00 -6.463353120669677876e-02
2.149999999999999911e+00 -6.082280185135777867e-02
2.160000000000000142e+00 -5.984198947025284876e-02
2.169999999999999929e+00 -6.116350629837047359e-02
2.180000000000000160e+00 -6.336371394857930051e-02
2.189999999999999947e+00 -6.536067899228110989e-02
2.200000000000000178e+00 -6.600987776885203218e-02
2.209999999999999964e+00 -6.404529470947095682e-02
2.220000000000000195e+00 -5.856998247318819656e-02
2.229999999999999982e+00 -4.868401969475658064e-02
2.240000000000000213e+00 -3.367512706580543663e-02
2.250000000000000000e+00 -1.342718962391306788e-02
2.260000000000000231e+00 1.258661056176502147e-02
2.270000000000000018e+00 4.355327601069299698e-02
2.280000000000000249e+00 7.970748714326016116e-02
2.290000000000000036e+00 1.195350587877589826e-01
2.300000000000000266e+00 1.626438815762165091e-01
2.310000000000000053e+00 2.073757825765169538e-01
2.319999999999999840e+00 2.525731730438938172e-01
2.330000000000000071e+00 2.967413080810162307e-01
2.339999999999999858e+00 3.383868626681189040e-01
2.350000000000000089e+00 3.760853995397047678e-01
2.359999999999999876e+00 4.086456865700512364e-01
2.370000000000000107e+00 4.346039129397508693e-01
2.379999999999999893e+00 4.536363240965250454e-01
2.390000000000000124e+00 4.641929632004053174e-01
2.399999999999999911e+00 4.671500158746096365e-01
2.410000000000000142e+00 4.609466336643280315e-01
2.419999999999999929e+00 4.474230792645603749e-01
2.430000000000000160e+00 4.259174918056147785e-01
2.439999999999999947e+00 3.982740233324332246e-01
2.450000000000000178e+00 3.649983703733228335e-01
2.459999999999999964e+00 3.277882597264603071e-01
2.470000000000000195e+00 2.879445132081372982e-01
2.479999999999999982e+00 2.470925274198149668e-01
2.490000000000000213e+00 2.067117156799358479e-01
2.500000000000000000e+00 1.684841607570481126e-01
2.510000000000000231e+00 1.334099154290650235e-01
2.520000000000000018e+00 1.033289979208739939e-01
2.530000000000000249e+00 7.832277638062561109e-02
2.540000000000000036e+00 6.014021935549597464e-02
2.550000000000000266e+00 4.811132279255011385e-02
2.560000000000000053e+00 4.318063043694911340e-02
2.569999999999999840e+00 4.446273137555311478e-02
2.580000000000000071e+00 5.183401881271970657e-02
2.589999999999999858e+00 6.429917539685207906e-02
2.600000000000000089e+00 8.085052143063817254e-02
2.609999999999999876e+00 1.003644076342018049e-01
2.620000000000000107e+00 1.214123672436193679e-01
2.629999999999999893e+00 1.426444658329403259e-01
2.640000000000000124e+00 1.628188906292999949e-01
2.649999999999999911e+00 1.802554692713916051e-01
2.660000000000000142e+00 1.943394857357244043e-01
2.669999999999999929e+00 2.034524022177453817e-01
2.680000000000000160e+00 2.074714721587118671e-01
2.689999999999999947e+00 2.053952532636019734e-01
2.700000000000000178e+00 1.973819965856568048e-01
2.709999999999999964e+00 1.833574576157775415e-01
2.720000000000000195e+00 1.636747075901586468e-01
2.729999999999999982e+00 1.391667306214491029e-01
2.740000000000000213e+00 1.104068148404565991e-01
2.750000000000000000e+00 7.881034932638451840e-02
2.760000000000000231e+00 4.528470199951364905e-02
2.770000000000000018e+00 1.129971457282180451e-02
2.780000000000000249e+00 -2.179082577642506985e-02
2.790000000000000036e+00 -5.290347848922140328e-02
2.800000000000000266e+00 -8.055429512807818493e-02
2.810000000000000053e+00 -1.040275491984159612e-01
2.819999999999999840e+00 -1.222408806058342956e-01
2.830000000000000071e+00 -1.347061394993373240e-01
2.839999999999999858e+00 -1.411465002666474899e-01
2.850000000000000089e+00 -1.412249707808973798e-01
2.859999999999999876e+00 -1.356027418806343421e-01
2.870000000000000107e+00 -1.241177778170635959e-01
2.879999999999999893e+00 -1.081977965724369023e-01
2.890000000000000124e+00 -8.797523937306714337e-02
2.899999999999999911e+00 -6.516236241584784372e-02
2.910000000000000142e+00 -4.051548305840577818e-02
2.919999999999999929e+00 -1.544438081641344440e-02
2.930000000000000160e+00 8.900666807850683704e-03
2.939999999999999947e+00 3.139952389533921806e-02
2.950000000000000178e+00 5.102741851291511116e-02
2.959999999999999964e+00 6.685431417091236561e-02
2.970000000000000195e+00 7.843650036149546478e-02
2.979999999999999982e+00 8.497440233966710443e-02
2.990000000000000213e+00 8.685115836808410261e-02
3.000000000000000000e+00 8.342444845252566799e-02
3.010000000000000231e+00 7.582100379662297385e-02
3.020000000000000018e+00 6.382936018225289498e-02
3.030000000000000249e+00 4.884659192544587442e-02
3.040000000000000036e+00 3.137954983487604987e-02
3.050000000000000266e+00 1.269334996841045386e-02
3.060000000000000053e+00 -6.224145880082217544e-03
3.070000000000000284e+00 -2.421175416688909135e-02
3.080000000000000071e+00 -4.028050676273118441e-02
3.089999999999999858e+00 -5.330591989938447683e-02
3.100000000000000089e+00 -6.276601791027443256e-02
3.109999999999999876e+00 -6.753135462888214258e-02
3.120000000000000107e+00 -6.786653980182176527e-02
3.129999999999999893e+00 -6.267409137935128771e-02
3.140000000000000124e+00 -5.293887287230245042e-02
3.149999999999999911e+00 -3.815527743034535790e-02
3.160000000000000142e+00 -1.945238910750702807e-02
3.169999999999999929e+00 2.866057313277070064e-03
3.180000000000000160e+00 2.767671397794790183e-02
3.189999999999999947e+00 5.409039419199196397e-02
3.200000000000000178e+00 8.096489358334447994e-02
3.209999999999999964e+00 1.072568987101555349e-01
3.220000000000000195e+00 1.317322595575758926e-01
3.229999999999999982e+00 1.536793059380056892e-01
3.240000000000000213e+00 1.717113059257332763e-01
3.250000000000000000e+00 1.857916601221079878e-01
3.260000000000000231e+00 1.945649277541496580e-01
3.270000000000000018e+00 1.985641284666121720e-01
3.280000000000000249e+00 1.970327450692533899e-01
3.290000000000000036e+00 1.906561108280189210e-01
3.300000000000000266e+00 1.794966622658327737e-01
3.310000000000000053e+00 1.643159257094057857e-01
3.320000000000000284e+00 1.458664629882198971e-01
3.330000000000000071e+00 1.250004494480409512e-01
3.339999999999999858e+00 1.028133734247600323e-01
3.350000000000000089e+00 8.032183538168428949e-02
3.359999999999999876e+00 5.850023835345746770e-02
3.370000000000000107e+00 3.860783617004048818e-02
3.379999999999999893e+00 2.114807955161178421e-02
3.390000000000000124e+00 7.347169895741271703e-03
3.399999999999999911e+00 -2.687776102480142221e-03
3.410000000000000142e+00 -8.190058127004552768e-03
3.419999999999999929e+00 -9.282658170129286582e-03
3.430000000000000160e+00 -5.902215100478716212e-03
3.439999999999999947e+00 1.666034689790035685e-03
3.450000000000000178e+00 1.279616901172864543e-02
3.459999999999999964e+00 2.702471879222406725e-02
3.470000000000000195e+00 4.328790644229414675e-02
3.479999999999999982e+00 6.086256328317136977e-02
3.490000000000000213e+00 7.865482141492528834e-02
3.500000000000000000e+00 9.560775225123158139e-02
3.510000000000000231e+00 1.109340909597797686e-01
3.520000000000000018e+00 1.235007538015086281e-01
3.530000000000000249e+00 1.328121771226110914e-01
3.540000000000000036e+00 1.380710638172562288e-01
3.550000000000000266e+00 1.389742133271673896e-01
3.560000000000000053e+00 1.353618573970967187e-01
3.570000000000000284e+00 1.270761003447896942e-01
3.580000000000000071e+00 1.146760563533560928e-01
3.589999999999999858e+00 9.818150551447223096e-02
3.600000000000000089e+00 7.870799265273038803e-02
3.609999999999999876e+00 5.655870222086592514e-02
3.620000000000000107e+00 3.302268053670591452e-02
3.629999999999999893e+00 8.879742402292216397e-03
3.640000000000000124e+00 -1.481248451100166535e-02
3.649999999999999911e+00 -3.702493333945536258e-02
3.660000000000000142e+00 -5.691019939255019533e-02
3.669999999999999929e+00 -7.362200044969641199e-02
3.680000000000000160e+00 -8.644038344350117586e-02
3.689999999999999947e+00 -9.506914973031585503e-02
3.700000000000000178e+00 -9.887257115562546328e-02
3.709999999999999964e+00 -9.828899575985086678e-02
3.720000000000000195e+00 -9.280010634513161105e-02
3.729999999999999982e+00 -8.348510483091328704e-02
3.740000000000000213e+00 -7.018125007122862080e-02
3.750000000000000000e+00 -5.418423959428592812e-02
3.760000000000000231e+00 -3.595668830469693489e-02
3.770000000000000018e+00 -1.664152157181541386e-02
3.780000000000000249e+00 2.881346998271444582e-03
3.790000000000000036e+00 2.158404400499507395e-02
3.800000000000000266e+00 3.859222815440056104e-02
3.810000000000000053e+00 5.292444090076504210e-02
3.820000000000000284e+00 6.411868282666470520e-02
3.830000000000000071e+00 7.119593265334193954e-02
3.839999999999999858e+00 7.438148014442562406e-02
3.850000000000000089e+00 7.272430632720312815e-02
3.859999999999999876e+00 6.708079190650177714e-02
