# [DEFAULT]
# # input and output specifications
# dataformat = QA
# outputtype = gr
# 
# # PDF calculation setup
# mode = xray
# wavelength = 
# composition = Cl4.0Cr1.0Na1.0
# bgscale = 1.0
# rpoly = 0.9
# qmaxinst = 28
# qmin = 0.0
# qmax = 22
# rmin = 0.0
# rmax = 30.0
# rstep = 0.01
# 
# # End of config --------------------------------------------------------------
# 
# #### start data
# #S 1
# #L r(Å)  G(Å$^$)
# 
0.000000000000000000e+00 0.000000000000000000e+00
1.000000000000000021e-02 -1.979578465858237470e-03
2.000000000000000042e-02 -4.128122300530144735e-03
2.999999999999999889e-02 -6.639054967969921367e-03
4.000000000000000083e-02 -9.587016096708636179e-03
5.000000000000000278e-02 -1.307085124077140767e-02
5.999999999999999778e-02 -1.705221530061885177e-02
7.000000000000000666e-02 -2.145607296075840997e-02
8.000000000000000167e-02 -2.611127631756321801e-02
8.999999999999999667e-02 -3.078475140568932844e-02
1.000000000000000056e-01 -3.514558832869025401e-02
1.100000000000000006e-01 -3.892087634469408586e-02
1.199999999999999956e-01 -4.159612471600501737e-02
1.300000000000000044e-01 -4.301545725032216577e-02
1.400000000000000133e-01 -4.257380632845358948e-02
1.499999999999999944e-01 -4.027582978347087755e-02
1.600000000000000033e-01 -3.568348909043481815e-02
1.700000000000000122e-01 -2.890557725683513129e-02
1.799999999999999933e-01 -1.986539993350867547e-02
1.900000000000000022e-01 -8.795762040035293161e-03
2.000000000000000111e-01 3.964855957315943299e-03
2.099999999999999922e-01 1.800040536383756828e-02
2.200000000000000011e-01 3.266950270683284530e-02
2.300000000000000100e-01 4.727778729994325246e-02
2.399999999999999911e-01 6.115314228973414007e-02
2.500000000000000000e-01 7.322122499769598281e-02
2.600000000000000089e-01 8.303977932448690369e-02
2.700000000000000178e-01 8.942796484456509709e-02
2.800000000000000266e-01 9.212061236998100866e-02
2.899999999999999800e-01 9.024458160693626940e-02
2.999999999999999889e-01 8.366804072871761311e-02
3.099999999999999978e-01 7.216352259228575594e-02
3.200000000000000067e-01 5.574738025826884991e-02
3.300000000000000155e-01 3.498234097331805181e-02
3.400000000000000244e-01 1.013993331561614461e-02
3.500000000000000333e-01 -1.755425905145521076e-02
3.599999999999999867e-01 -4.737090720143657258e-02
3.699999999999999956e-01 -7.782089231604090440e-02
3.800000000000000044e-01 -1.074912740595270616e-01
3.900000000000000133e-01 -1.350545467085653706e-01
4.000000000000000222e-01 -1.586842735963490403e-01
4.100000000000000311e-01 -1.772200839750925627e-01
4.199999999999999845e-01 -1.890557084961073664e-01
4.299999999999999933e-01 -1.930816803121289671e-01
4.400000000000000022e-01 -1.885625198076825437e-01
4.500000000000000111e-01 -1.743953759038993079e-01
4.600000000000000200e-01 -1.511564523559044415e-01
4.700000000000000289e-01 -1.178548960212694174e-01
4.799999999999999822e-01 -7.645072356241901235e-02
4.899999999999999911e-01 -2.636097631809384764e-02
5.000000000000000000e-01 2.961697322782826797e-02
5.100000000000000089e-01 9.068873124785327422e-02
5.200000000000000178e-01 1.542414707271159979e-01
5.300000000000000266e-01 2.182367841277723652e-01
5.400000000000000355e-01 2.801283830542478093e-01
5.500000000000000444e-01 3.374836524262038728e-01
5.600000000000000533e-01 3.875841600185648828e-01
5.700000000000000622e-01 4.286403496787459244e-01
5.799999999999999600e-01 4.575417941197724159e-01
5.899999999999999689e-01 4.741023919672755493e-01
5.999999999999999778e-01 4.747516368711588997e-01
6.099999999999999867e-01 4.612662000596874368e-01
6.199999999999999956e-01 4.305919913191219583e-01
6.300000000000000044e-01 3.855176199034580642e-01
6.400000000000000133e-01 3.249925450878234368e-01
6.500000000000000222e-01 2.517834319592254233e-01
6.600000000000000311e-01 1.670868821580282493e-01
6.700000000000000400e-01 7.369825413472859410e-02
6.800000000000000488e-01 -2.559265605459831380e-02
6.900000000000000577e-01 -1.276801732666481837e-01
7.000000000000000666e-01 -2.293250882899185439e-01
7.099999999999999645e-01 -3.267089743807217728e-01
7.199999999999999734e-01 -4.175217662479611680e-01
7.299999999999999822e-01 -4.968706804233468111e-01
7.399999999999999911e-01 -5.641396844187697157e-01
7.500000000000000000e-01 -6.147842967236476497e-01
7.600000000000000089e-01 -6.489519302427826375e-01
7.700000000000000178e-01 -6.638720584485524601e-01
7.800000000000000266e-01 -6.599982627871335827e-01
7.900000000000000355e-01 -6.370716476256356176e-01
8.000000000000000444e-01 -5.956902586257695198e-01
8.100000000000000533e-01 -5.381230829329912702e-01
8.200000000000000622e-01 -4.652568569257813369e-01
8.300000000000000711e-01 -3.811828248298439470e-01
8.399999999999999689e-01 -2.874813613354206265e-01
8.499999999999999778e-01 -1.887563526921829937e-01
8.599999999999999867e-01 -8.791326678047063636e-02
8.699999999999999956e-01 1.127265189076814486e-02
8.800000000000000044e-01 1.050189840173896549e-01
8.900000000000000133e-01 1.904899370605892817e-01
9.000000000000000222e-01 2.643792059567955932e-01
9.100000000000000311e-01 3.243581173565615039e-01
9.200000000000000400e-01 3.688747245347158144e-01
9.300000000000000488e-01 3.958152866306690054e-01
9.400000000000000577e-01 4.061118949046866322e-01
9.500000000000000666e-01 3.978416378657064212e-01
9.599999999999999645e-01 3.744220562696056187e-01
9.699999999999999734e-01 3.344062336228523780e-01
9.799999999999999822e-01 2.826045323992455449e-01
9.899999999999999911e-01 2.196397889472818110e-01
1.000000000000000000e+00 1.497264019294397008e-01
1.010000000000000009e+00 7.537317977085497556e-02
1.020000000000000018e+00 2.395782269244521590e-04
1.030000000000000027e+00 -7.254695607614644604e-02
1.040000000000000036e+00 -1.395953529029392293e-01
1.050000000000000044e+00 -1.985509852190356916e-01
1.060000000000000053e+00 -2.460137485985652017e-01
1.070000000000000062e+00 -2.815329897590355124e-01
1.080000000000000071e+00 -3.015975872724077078e-01
1.090000000000000080e+00 -3.080012273277127344e-01
1.100000000000000089e+00 -2.980123722803428854e-01
1.110000000000000098e+00 -2.746100118158014691e-01
1.120000000000000107e+00 -2.371869386230087140e-01
1.130000000000000115e+00 -1.887274440831102351e-01
1.140000000000000124e+00 -1.307583282815661385e-01
1.150000000000000133e+00 -6.622218346623659491e-02
1.159999999999999920e+00 2.101996652048659930e-03
1.169999999999999929e+00 7.113689002373446701e-02
1.179999999999999938e+00 1.380919815453190980e-01
1.189999999999999947e+00 1.994987505207507505e-01
1.199999999999999956e+00 2.538201135774046935e-01
1.209999999999999964e+00 2.970279170059548779e-01
1.219999999999999973e+00 3.293558685657921870e-01
1.229999999999999982e+00 3.475825139765544858e-01
1.239999999999999991e+00 3.526982355327151208e-01
1.250000000000000000e+00 3.433544959670315477e-01
1.260000000000000009e+00 3.208829047771847853e-01
1.270000000000000018e+00 2.860397568782863109e-01
1.280000000000000027e+00 2.403949705459798025e-01
1.290000000000000036e+00 1.863636273097888374e-01
1.300000000000000044e+00 1.258865107505670600e-01
1.310000000000000053e+00 6.207170239302627762e-02
1.320000000000000062e+00 -2.496659595363721895e-03
1.330000000000000071e+00 -6.517051106530487303e-02
1.340000000000000080e+00 -1.226735558065907561e-01
1.350000000000000089e+00 -1.734448785097092716e-01
1.360000000000000098e+00 -2.144437919185489816e-01
1.370000000000000107e+00 -2.448498630052503289e-01
1.380000000000000115e+00 -2.628995422976446728e-01
1.390000000000000124e+00 -2.682022127798223687e-01
1.400000000000000133e+00 -2.608547663486899815e-01
1.409999999999999920e+00 -2.407727456401643484e-01
1.419999999999999929e+00 -2.098938445797369767e-01
1.429999999999999938e+00 -1.685413169785577037e-01
1.439999999999999947e+00 -1.198888031709423596e-01
1.449999999999999956e+00 -6.494944239634817262e-02
1.459999999999999964e+00 -7.075600925838093289e-03
1.469999999999999973e+00 5.159750437814770996e-02
1.479999999999999982e+00 1.084846934493406967e-01
1.489999999999999991e+00 1.610147055301588692e-01
1.500000000000000000e+00 2.071728339874353286e-01
1.510000000000000009e+00 2.450186099777556525e-01
1.520000000000000018e+00 2.728577918702191907e-01
1.530000000000000027e+00 2.901931787925422501e-01
1.540000000000000036e+00 2.955182926969656676e-01
1.550000000000000044e+00 2.901181472091822755e-01
1.560000000000000053e+00 2.727330381833129036e-01
1.570000000000000062e+00 2.460815837350772417e-01
1.580000000000000071e+00 2.097982639834123642e-01
1.590000000000000080e+00 1.669184603665311295e-01
1.600000000000000089e+00 1.184934393647062156e-01
1.610000000000000098e+00 6.712657976670274862e-02
1.620000000000000107e+00 1.475427993045669989e-02
1.630000000000000115e+00 -3.634871136887809356e-02
1.640000000000000124e+00 -8.430105712376478877e-02
1.650000000000000133e+00 -1.269884368032944966e-01
1.660000000000000142e+00 -1.634438937523391977e-01
1.669999999999999929e+00 -1.916016609971349649e-01
1.679999999999999938e+00 -2.119540280663660958e-01
1.689999999999999947e+00 -2.225190840336681297e-01
1.699999999999999956e+00 -2.250628223450243381e-01
1.709999999999999964e+00 -2.187086659747834172e-01
1.719999999999999973e+00 -2.053950248259453493e-01
1.729999999999999982e+00 -1.856483193346986915e-01
1.739999999999999991e+00 -1.613598384541810871e-01
1.750000000000000000e+00 -1.340203449476551067e-01
1.760000000000000009e+00 -1.054970921855052368e-01
1.770000000000000018e+00 -7.750453441103498375e-02
1.780000000000000027e+00 -5.199149088277085773e-02
1.790000000000000036e+00 -3.010354633550963582e-02
1.800000000000000044e+00 -1.395505109326409393e-02
1.810000000000000053e+00 -3.610444843952800853e-03
1.820000000000000062e+00 -1.011739029216454340e-03
1.830000000000000071e+00 -5.359553439918307918e-03
1.840000000000000080e+00 -1.762231828804307343e-02
1.850000000000000089e+00 -3.673600029546293666e-02
1.860000000000000098e+00 -6.243824756040502327e-02
1.870000000000000107e+00 -9.352667610613626947e-02
1.880000000000000115e+00 -1.287740985769203206e-01
1.890000000000000124e+00 -1.668285026057852449e-01
1.900000000000000133e+00 -2.060761464769096107e-01
1.910000000000000142e+00 -2.449229477858862747e-01
1.919999999999999929e+00 -2.820800025965252145e-01
1.929999999999999938e+00 -3.156247160891010317e-01
1.939999999999999947e+00 -3.450539585089123507e-01
1.949999999999999956e+00 -3.686413916184245188e-01
1.959999999999999964e+00 -3.864297580036482049e-01
1.969999999999999973e+00 -3.974879179016198028e-01
1.979999999999999982e+00 -4.021691933655775486e-01
1.989999999999999991e+00 -4.005931103440102392e-01
2.000000000000000000e+00 -3.933221531838343998e-01
2.010000000000000231e+00 -3.813964062779854336e-01
2.020000000000000018e+00 -3.655952009811275771e-01
2.030000000000000249e+00 -3.474308117897242365e-01
2.040000000000000036e+00 -3.279731486538886576e-01
2.049999999999999822e+00 -3.086034666445809926e-01
2.060000000000000053e+00 -2.906879470938556476e-01
2.069999999999999840e+00 -2.750580033343885122e-01
2.080000000000000071e+00 -2.629442081406241360e-01
2.089999999999999858e+00 -2.546824566751109686e-01
2.100000000000000089e+00 -2.508579297122694451e-01
2.109999999999999876e+00 -2.514076111971523253e-01
2.120000000000000107e+00 -2.560247440826323162e-01
2.129999999999999893e+00 -2.642529739716506509e-01
2.140000000000000124e+00 -2.750138639451902289e-01
2.149999999999999911e+00 -2.873609508463128570e-01
2.160000000000000142e+00 -2.999064032637729915e-01
2.169999999999999929e+00 -3.110569470655530355e-01
2.180000000000000160e+00 -3.196647410318360083e-01
2.189999999999999947e+00 -3.237496708173914217e-01
2.200000000000000178e+00 -3.225327247454494173e-01
2.209999999999999964e+00 -3.143202057555165019e-01
2.220000000000000195e+00 -2.985803260633164147e-01
2.229999999999999982e+00 -2.745472712569441698e-01
2.240000000000000213e+00 -2.418823904959501170e-01
2.250000000000000000e+00 -2.010989176707719261e-01
2.260000000000000231e+00 -1.521253953639791212e-01
2.270000000000000018e+00 -9.669165259060853723e-02
2.280000000000000249e+00 -3.522262673541569356e-02
2.290000000000000036e+00 2.986436114570636263e-02
2.300000000000000266e+00 9.721111458568262864e-02
2.310000000000000053e+00 1.644904323020218995e-01
2.319999999999999840e+00 2.294712011550693875e-01
2.330000000000000071e+00 2.901545087482157448e-01
2.339999999999999858e+00 3.442060829143452905e-01
2.350000000000000089e+00 3.897504815165470649e-01
2.359999999999999876e+00 4.252785950179999164e-01
2.370000000000000107e+00 4.488647568146676980e-01
2.379999999999999893e+00 4.605478123407670266e-01
2.390000000000000124e+00 4.583180879357682258e-01
2.399999999999999911e+00 4.440772285051725610e-01
2.410000000000000142e+00 4.159071610260467455e-01
2.419999999999999929e+00 3.770438538824276709e-01
2.430000000000000160e+00 3.270237664711982406e-01
2.439999999999999947e+00 2.689309995221542127e-01
2.450000000000000178e+00 2.040219752902653061e-01
2.459999999999999964e+00 1.350939061444896561e-01
2.470000000000000195e+00 6.442093542281285279e-02
2.479999999999999982e+00 -5.291382852554225857e-03
2.490000000000000213e+00 -7.176587721995822400e-02
2.500000000000000000e+00 -1.321322915747962234e-01
2.510000000000000231e+00 -1.851310032349357260e-01
2.520000000000000018e+00 -2.275386155328707194e-01
2.530000000000000249e+00 -2.597223491224336378e-01
2.540000000000000036e+00 -2.785798151570780257e-01
2.550000000000000266e+00 -2.856447205635445630e-01
2.560000000000000053e+00 -2.792201902069192387e-01
2.569999999999999840e+00 -2.609960971027109888e-01
2.580000000000000071e+00 -2.311141974955245315e-01
2.589999999999999858e+00 -1.912725280597087907e-01
2.600000000000000089e+00 -1.431414329768119220e-01
2.609999999999999876e+00 -8.848809401163250377e-02
2.620000000000000107e+00 -2.977755627664528670e-02
2.629999999999999893e+00 3.095358936598882268e-02
2.640000000000000124e+00 9.140453010747871809e-02
2.649999999999999911e+00 1.490414969833457060e-01
2.660000000000000142e+00 2.024725825209430230e-01
2.669999999999999929e+00 2.491084388979048769e-01
2.680000000000000160e+00 2.883716862094835576e-01
2.689999999999999947e+00 3.184472599982408059e-01
2.700000000000000178e+00 3.392034979584523935e-01
2.709999999999999964e+00 3.501564246156846361e-01
2.720000000000000195e+00 3.514159640153282083e-01
2.729999999999999982e+00 3.439229522260997540e-01
2.740000000000000213e+00 3.279935414357586509e-01
2.750000000000000000e+00 3.056427222922671327e-01
2.760000000000000231e+00 2.775031364037502390e-01
2.770000000000000018e+00 2.459580917747512252e-01
2.780000000000000249e+00 2.122147912405730474e-01
2.790000000000000036e+00 1.782424954044791732e-01
2.800000000000000266e+00 1.456616266970199858e-01
2.810000000000000053e+00 1.158162432747695536e-01
2.819999999999999840e+00 9.009278419344560196e-02
2.830000000000000071e+00 6.939071500482259236e-02
2.839999999999999858e+00 5.427963244244678881e-02
2.850000000000000089e+00 4.533494609666846586e-02
2.859999999999999876e+00 4.205968422459527983e-02
2.870000000000000107e+00 4.470891640305661024e-02
2.879999999999999893e+00 5.185961822711055574e-02
2.890000000000000124e+00 6.333017065447232863e-02
2.899999999999999911e+00 7.730072635816144511e-02
2.910000000000000142e+00 9.283047604178761014e-02
2.919999999999999929e+00 1.083569301437991572e-01
2.930000000000000160e+00 1.224799886612929073e-01
2.939999999999999947e+00 1.339105677277451223e-01
2.950000000000000178e+00 1.414212425007514151e-01
2.959999999999999964e+00 1.439108318253888852e-01
2.970000000000000195e+00 1.408877878057336885e-01
2.979999999999999982e+00 1.313983707101978038e-01
2.990000000000000213e+00 1.159934744446003280e-01
3.000000000000000000e+00 9.393391953789272109e-02
3.010000000000000231e+00 6.670438173007099680e-02
3.020000000000000018e+00 3.415408373380412338e-02
3.030000000000000249e+00 -1.892022739417167400e-03
3.040000000000000036e+00 -4.063803294380206876e-02
3.050000000000000266e+00 -8.040018565155158947e-02
3.060000000000000053e+00 -1.197608018042307931e-01
3.070000000000000284e+00 -1.571158444746274530e-01
3.080000000000000071e+00 -1.910739935240054199e-01
3.089999999999999858e+00 -2.199983981541515921e-01
3.100000000000000089e+00 -2.431714959543102572e-01
3.109999999999999876e+00 -2.588458496009762300e-01
3.120000000000000107e+00 -2.674424668707685582e-01
3.129999999999999893e+00 -2.671339061573794194e-01
3.140000000000000124e+00 -2.593914364378003268e-01
3.149999999999999911e+00 -2.431879284321594725e-01
3.160000000000000142e+00 -2.201601794770451925e-01
3.169999999999999929e+00 -1.904826033046892741e-01
3.180000000000000160e+00 -1.557276170594402986e-01
3.189999999999999947e+00 -1.170257566170906927e-01
3.200000000000000178e+00 -7.592290099754024635e-02
3.209999999999999964e+00 -3.394960760344085948e-02
3.220000000000000195e+00 7.254272614378864600e-03
3.229999999999999982e+00 4.642549980725475117e-02
3.240000000000000213e+00 8.170615745243720029e-02
3.250000000000000000e+00 1.126302928105926832e-01
3.260000000000000231e+00 1.372802567787632655e-01
3.270000000000000018e+00 1.559651911946705327e-01
3.280000000000000249e+00 1.674180532677006505e-01
3.290000000000000036e+00 1.722181965884173049e-01
3.300000000000000266e+00 1.701226596624165199e-01
3.310000000000000053e+00 1.618350747186260152e-01
3.320000000000000284e+00 1.480884855985183379e-01
3.330000000000000071e+00 1.296873615057738405e-01
3.339999999999999858e+00 1.079917758197161959e-01
3.350000000000000089e+00 8.397808733843267759e-02
3.359999999999999876e+00 5.909382758045145234e-02
3.370000000000000107e+00 3.459120404178376434e-02
3.379999999999999893e+00 1.150584281368020184e-02
3.390000000000000124e+00 -8.797316668646221194e-03
3.399999999999999911e+00 -2.580123750741783809e-02
3.410000000000000142e+00 -3.849265596046129445e-02
3.419999999999999929e+00 -4.669760444076861278e-02
3.430000000000000160e+00 -5.011433902253364242e-02
3.439999999999999947e+00 -4.880262615406962684e-02
3.450000000000000178e+00 -4.325421311085306253e-02
3.459999999999999964e+00 -3.374382071279114631e-02
3.470000000000000195e+00 -2.135475585005602861e-02
3.479999999999999982e+00 -6.638161639635638787e-03
3.490000000000000213e+00 9.150759334331794517e-03
3.500000000000000000e+00 2.508392407320396075e-02
3.510000000000000231e+00 4.016012430517755527e-02
3.520000000000000018e+00 5.327296225148629022e-02
3.530000000000000249e+00 6.375661273892359315e-02
3.540000000000000036e+00 7.076036332010429697e-02
3.550000000000000266e+00 7.386673930348447437e-02
3.560000000000000053e+00 7.283667892662681886e-02
3.570000000000000284e+00 6.745827853530844687e-02
3.580000000000000071e+00 5.822805052742504456e-02
3.589999999999999858e+00 4.517678010655198917e-02
3.600000000000000089e+00 2.938951299435297107e-02
3.609999999999999876e+00 1.125548862611224984e-02
3.620000000000000107e+00 -7.939782959783486457e-03
3.629999999999999893e+00 -2.727738505412825518e-02
3.640000000000000124e+00 -4.567000109185194445e-02
3.649999999999999911e+00 -6.193767080333283104e-02
3.660000000000000142e+00 -7.517133905622798429e-02
3.669999999999999929e+00 -8.441264147061998402e-02
3.680000000000000160e+00 -8.885072342841383863e-02
3.689999999999999947e+00 -8.816685811431437814e-02
3.700000000000000178e+00 -8.161121090378195553e-02
3.709999999999999964e+00 -6.972300020540206367e-02
3.720000000000000195e+00 -5.186302159220137348e-02
3.729999999999999982e+00 -2.932749899871771315e-02
3.740000000000000213e+00 -1.884753255183724274e-03
3.750000000000000000e+00 2.890876674775240754e-02
3.760000000000000231e+00 6.253029434130522035e-02
3.770000000000000018e+00 9.760154145816558879e-02
3.780000000000000249e+00 1.330738348617953593e-01
3.790000000000000036e+00 1.676927850925631902e-01
3.800000000000000266e+00 2.003796810840077214e-01
3.810000000000000053e+00 2.299096503267357983e-01
3.820000000000000284e+00 2.556659554404311918e-01
3.830000000000000071e+00 2.763826836963158007e-01
3.839999999999999858e+00 2.922580244387713577e-01
3.850000000000000089e+00 3.019920003722242896e-01
3.859999999999999876e+00 3.065555490976979436e-01
