# [DEFAULT]
# # input and output specifications
# dataformat = QA
# outputtype = gr
# 
# # PDF calculation setup
# mode = xray
# wavelength = 
# composition = Cl4.0Cr1.0Na1.0
# bgscale = 1.0
# rpoly = 0.9
# qmaxinst = 28
# qmin = 0.0
# qmax = 22
# rmin = 0.0
# rmax = 30.0
# rstep = 0.01
# 
# # End of config --------------------------------------------------------------
# 
# #### start data
# #S 1
# #L r(Å)  G(Å$^$)
# 
0.000000000000000000e+00 0.000000000000000000e+00
1.000000000000000021e-02 -3.288457510461769914e-03
2.000000000000000042e-02 -6.678369636170051506e-03
2.999999999999999889e-02 -1.028084418452014301e-02
4.000000000000000083e-02 -1.412779813378660550e-02
5.000000000000000278e-02 -1.825097065611683278e-02
5.999999999999999778e-02 -2.258767277235716048e-02
7.000000000000000666e-02 -2.703788018849908811e-02
8.000000000000000167e-02 -3.142056389625176582e-02
8.999999999999999667e-02 -3.553067163821956032e-02
1.000000000000000056e-01 -3.904314556061948965e-02
1.100000000000000006e-01 -4.175751381951155888e-02
1.199999999999999956e-01 -4.318741262523097951e-02
1.300000000000000044e-01 -4.326726736724082617e-02
1.400000000000000133e-01 -4.145325031471779748e-02
1.499999999999999944e-01 -3.782742308068403475e-02
1.600000000000000033e-01 -3.203247239564317728e-02
1.700000000000000122e-01 -2.423574057602924728e-02
1.799999999999999933e-01 -1.442788147687799026e-02
1.900000000000000022e-01 -2.886088083739060586e-03
2.000000000000000111e-01 1.002696981924812783e-02
2.099999999999999922e-01 2.386320545476718763e-02
2.200000000000000011e-01 3.801450725320489749e-02
2.300000000000000100e-01 5.177092787495751053e-02
2.399999999999999911e-01 6.454470140510454312e-02
2.500000000000000000e-01 7.527273453192513675e-02
2.600000000000000089e-01 8.361915359047841778e-02
2.700000000000000178e-01 8.846264885270820055e-02
2.800000000000000266e-01 8.963030181163827992e-02
2.899999999999999800e-01 8.633657683146306328e-02
2.999999999999999889e-01 7.853026373092446277e-02
3.099999999999999978e-01 6.605983306666048105e-02
3.200000000000000067e-01 4.901486400763022111e-02
3.300000000000000155e-01 2.798618393488605180e-02
3.400000000000000244e-01 3.311607058848291089e-03
3.500000000000000333e-01 -2.382400942486238848e-02
3.599999999999999867e-01 -5.263930836981534078e-02
3.699999999999999956e-01 -8.174719034905207626e-02
3.800000000000000044e-01 -1.097295322742414536e-01
3.900000000000000133e-01 -1.353811068648726745e-01
4.000000000000000222e-01 -1.569379829919122227e-01
4.100000000000000311e-01 -1.733575434198678655e-01
4.199999999999999845e-01 -1.831387783599975061e-01
4.299999999999999933e-01 -1.852904461344042908e-01
4.400000000000000022e-01 -1.791778142482166325e-01
4.500000000000000111e-01 -1.638241380084842491e-01
4.600000000000000200e-01 -1.398528659822581288e-01
4.700000000000000289e-01 -1.064103979615396989e-01
4.799999999999999822e-01 -6.541418541407215126e-02
4.899999999999999911e-01 -1.642279308792063755e-02
5.000000000000000000e-01 3.788996115564812611e-02
5.100000000000000089e-01 9.666531539795303329e-02
5.200000000000000178e-01 1.574231641409077898e-01
5.300000000000000266e-01 2.181641884534119002e-01
5.400000000000000355e-01 2.764798203577979452e-01
5.500000000000000444e-01 3.300547052371353152e-01
5.600000000000000533e-01 3.763217807853491692e-01
5.700000000000000622e-01 4.136353886331423091e-01
5.799999999999999600e-01 4.390653909673900013e-01
5.899999999999999689e-01 4.525314093979366237e-01
5.999999999999999778e-01 4.506865120827748261e-01
6.099999999999999867e-01 4.353261277013990016e-01
6.199999999999999956e-01 4.036293138970037386e-01
6.300000000000000044e-01 3.583343558604691892e-01
6.400000000000000133e-01 2.985460765329487898e-01
6.500000000000000222e-01 2.269640490487095374e-01
6.600000000000000311e-01 1.448160289134749479e-01
6.700000000000000400e-01 5.482277217495404309e-02
6.800000000000000488e-01 -4.031969968414285399e-02
6.900000000000000577e-01 -1.375935112393600335e-01
7.000000000000000666e-01 -2.339427656655925503e-01
7.099999999999999645e-01 -3.256688378143586249e-01
7.199999999999999734e-01 -4.106705887313460979e-01
7.299999999999999822e-01 -4.842327969020243095e-01
7.399999999999999911e-01 -5.459087154665512864e-01
7.500000000000000000e-01 -5.913743076143531674e-01
7.600000000000000089e-01 -6.208928853703968853e-01
7.700000000000000178e-01 -6.318907105033717553e-01
7.800000000000000266e-01 -6.249096112234717726e-01
7.900000000000000355e-01 -5.997972304090106732e-01
8.000000000000000444e-01 -5.572316461402930798e-01
8.100000000000000533e-01 -4.994586398164100882e-01
8.200000000000000622e-01 -4.274432714441820935e-01
8.300000000000000711e-01 -3.451200973534347405e-01
8.399999999999999689e-01 -2.541371089442803766e-01
8.499999999999999778e-01 -1.588513506961168331e-01
8.599999999999999867e-01 -6.217064492472300363e-02
8.699999999999999956e-01 3.237558474654415874e-02
8.800000000000000044e-01 1.211006972459701125e-01
8.900000000000000133e-01 2.013678091158595251e-01
9.000000000000000222e-01 2.700203447148709079e-01
9.100000000000000311e-01 3.248974477034363151e-01
9.200000000000000400e-01 3.645831315998825373e-01
9.300000000000000488e-01 3.871187582549434625e-01
9.400000000000000577e-01 3.935006841966215974e-01
9.500000000000000666e-01 3.819613544077343215e-01
9.599999999999999645e-01 3.558759925717644435e-01
9.699999999999999734e-01 3.139553029336188406e-01
9.799999999999999822e-01 2.608785732803721169e-01
9.899999999999999911e-01 1.973508444133221518e-01
1.000000000000000000e+00 1.274527618988829936e-01
1.010000000000000009e+00 5.367705410290467272e-02
1.020000000000000018e+00 -2.043936354484698903e-02
1.030000000000000027e+00 -9.185710803777519251e-02
1.040000000000000036e+00 -1.572980268003280890e-01
1.050000000000000044e+00 -2.145232841300717119e-01
1.060000000000000053e+00 -2.602445866447311573e-01
1.070000000000000062e+00 -2.941065786593727860e-01
1.080000000000000071e+00 -3.127180292335930423e-01
1.090000000000000080e+00 -3.179130542038300922e-01
1.100000000000000089e+00 -3.070767396962679197e-01
1.110000000000000098e+00 -2.831779582306103160e-01
1.120000000000000107e+00 -2.456832779941736100e-01
1.130000000000000115e+00 -1.975467761784989729e-01
1.140000000000000124e+00 -1.403067033651922979e-01
1.150000000000000133e+00 -7.686691425528051347e-02
1.159999999999999920e+00 -9.960790563052546176e-03
1.169999999999999929e+00 5.737850719802212174e-02
1.179999999999999938e+00 1.224411055439761642e-01
1.189999999999999947e+00 1.818115751986938422e-01
1.199999999999999956e+00 2.340374006088283276e-01
1.209999999999999964e+00 2.751591118939962222e-01
1.219999999999999973e+00 3.054721386454641308e-01
1.229999999999999982e+00 3.218318908903896047e-01
1.239999999999999991e+00 3.252644520730858524e-01
1.250000000000000000e+00 3.144835898534508178e-01
1.260000000000000009e+00 2.908434323757986273e-01
1.270000000000000018e+00 2.551299472135641899e-01
1.280000000000000027e+00 2.089331462617327606e-01
1.290000000000000036e+00 1.546587553054858954e-01
1.300000000000000044e+00 9.427244342566637458e-02
1.310000000000000053e+00 3.083772352482737344e-02
1.320000000000000062e+00 -3.302785080965280062e-02
1.330000000000000071e+00 -9.474192770650653739e-02
1.340000000000000080e+00 -1.509970746317199075e-01
1.350000000000000089e+00 -2.002922630830213380e-01
1.360000000000000098e+00 -2.395726061079304636e-01
1.370000000000000107e+00 -2.680545657814008553e-01
1.380000000000000115e+00 -2.839757867536604197e-01
1.390000000000000124e+00 -2.869630099495655284e-01
1.400000000000000133e+00 -2.771259433911423820e-01
1.409999999999999920e+00 -2.543834222608191142e-01
1.419999999999999929e+00 -2.206972520347944555e-01
1.429999999999999938e+00 -1.763873520642531834e-01
1.439999999999999947e+00 -1.246633055815644792e-01
1.449999999999999956e+00 -6.653821186766703533e-02
1.459999999999999964e+00 -5.408179395291623157e-03
1.469999999999999973e+00 5.657079794790128430e-02
1.479999999999999982e+00 1.167705157222200391e-01
1.489999999999999991e+00 1.725769212702157052e-01
1.500000000000000000e+00 2.219269788515823849e-01
1.510000000000000009e+00 2.628276864199942664e-01
1.520000000000000018e+00 2.935238868187385886e-01
1.530000000000000027e+00 3.134761503457074161e-01
1.540000000000000036e+00 3.210983774488261333e-01
1.550000000000000044e+00 3.176672175046197366e-01
1.560000000000000053e+00 3.018224187390190494e-01
1.570000000000000062e+00 2.763219522324645294e-01
1.580000000000000071e+00 2.407034417881984134e-01
1.590000000000000080e+00 1.980704807024187275e-01
1.600000000000000089e+00 1.494282295383265735e-01
1.610000000000000098e+00 9.744923152122093868e-02
1.620000000000000107e+00 4.408971930968230701e-02
1.630000000000000115e+00 -8.303243444364392586e-03
1.640000000000000124e+00 -5.777430173774168731e-02
1.650000000000000133e+00 -1.021256359763683258e-01
1.660000000000000142e+00 -1.402920165173030531e-01
1.669999999999999929e+00 -1.701019411893352484e-01
1.679999999999999938e+00 -1.919671184155382349e-01
1.689999999999999947e+00 -2.037687582350466431e-01
1.699999999999999956e+00 -2.072401082833272012e-01
1.709999999999999964e+00 -2.013754465563229457e-01
1.719999999999999973e+00 -1.881134555148062104e-01
1.729999999999999982e+00 -1.679069724766159843e-01
1.739999999999999991e+00 -1.426706523140560956e-01
1.750000000000000000e+00 -1.139044246491234813e-01
1.760000000000000009e+00 -8.352308750018644368e-02
1.770000000000000018e+00 -5.333149889172481700e-02
1.780000000000000027e+00 -2.536186937012424245e-02
1.790000000000000036e+00 -8.989170153310861722e-04
1.800000000000000044e+00 1.780400635930419473e-02
1.810000000000000053e+00 3.054822979442228456e-02
1.820000000000000062e+00 3.519015977304644494e-02
1.830000000000000071e+00 3.243552952463323730e-02
1.840000000000000080e+00 2.110783321541083446e-02
1.850000000000000089e+00 2.204023840455003169e-03
1.860000000000000098e+00 -2.415447404170546070e-02
1.870000000000000107e+00 -5.681516937881542217e-02
1.880000000000000115e+00 -9.456811663758406261e-02
1.890000000000000124e+00 -1.360908531534411603e-01
1.900000000000000133e+00 -1.796421463332764090e-01
1.910000000000000142e+00 -2.236153487314089250e-01
1.919999999999999929e+00 -2.664756712562940111e-01
1.929999999999999938e+00 -3.062050574783540258e-01
1.939999999999999947e+00 -3.420102317592849661e-01
1.949999999999999956e+00 -3.719356074553083480e-01
1.959999999999999964e+00 -3.957635194275932466e-01
1.969999999999999973e+00 -4.122560547688524091e-01
1.979999999999999982e+00 -4.215177771450088762e-01
1.989999999999999991e+00 -4.233976961771275804e-01
2.000000000000000000e+00 -4.181960281311752903e-01
2.010000000000000231e+00 -4.068336998588888975e-01
2.020000000000000018e+00 -3.898018831325948952e-01
2.030000000000000249e+00 -3.687288032994679998e-01
2.040000000000000036e+00 -3.443849914830197090e-01
2.049999999999999822e+00 -3.185043845344062707e-01
2.060000000000000053e+00 -2.922632267401749639e-01
2.069999999999999840e+00 -2.669473889422572799e-01
2.080000000000000071e+00 -2.438591303884289074e-01
2.089999999999999858e+00 -2.237703631347968403e-01
2.100000000000000089e+00 -2.075750123916408896e-01
2.109999999999999876e+00 -1.956552990648106061e-01
2.120000000000000107e+00 -1.881174092973463829e-01
2.129999999999999893e+00 -1.850081987950037143e-01
2.140000000000000124e+00 -1.855908842105006562e-01
2.149999999999999911e+00 -1.895306025327825883e-01
2.160000000000000142e+00 -1.955311727922820764e-01
2.169999999999999929e+00 -2.027477740957861208e-01
2.180000000000000160e+00 -2.098243473631283273e-01
2.189999999999999947e+00 -2.153869498802278015e-01
2.200000000000000178e+00 -2.183709509203981824e-01
2.209999999999999964e+00 -2.173371122927106602e-01
2.220000000000000195e+00 -2.114547623633980522e-01
2.229999999999999982e+00 -1.998111688597742353e-01
2.240000000000000213e+00 -1.817461238037297866e-01
2.250000000000000000e+00 -1.572924931948346261e-01
2.260000000000000231e+00 -1.259781674425833609e-01
2.270000000000000018e+00 -8.888740734540345745e-02
2.280000000000000249e+00 -4.587546383511592607e-02
2.290000000000000036e+00 1.228653457570932439e-03
2.300000000000000266e+00 5.185695375570796573e-02
2.310000000000000053e+00 1.040820653996783474e-01
2.319999999999999840e+00 1.564966895062114005e-01
2.330000000000000071e+00 2.073979065903326646e-01
2.339999999999999858e+00 2.550538337283086432e-01
2.350000000000000089e+00 2.978618291451192168e-01
2.359999999999999876e+00 3.344946808466850996e-01
2.370000000000000107e+00 3.633179060323757370e-01
2.379999999999999893e+00 3.840364495481744522e-01
2.390000000000000124e+00 3.949329753959411327e-01
2.399999999999999911e+00 3.970941381499150102e-01
2.410000000000000142e+00 3.888139109787051018e-01
2.419999999999999929e+00 3.722627636228541537e-01
2.430000000000000160e+00 3.467794967266059070e-01
2.439999999999999947e+00 3.145171750996590410e-01
2.450000000000000178e+00 2.761408226525894349e-01
2.459999999999999964e+00 2.336289620206949136e-01
2.470000000000000195e+00 1.885229293609534118e-01
2.479999999999999982e+00 1.427249651775185924e-01
2.490000000000000213e+00 9.793317567616385833e-02
2.500000000000000000e+00 5.613139488298837798e-02
2.510000000000000231e+00 1.841710943292783342e-02
2.520000000000000018e+00 -1.302225310841781392e-02
2.530000000000000249e+00 -3.818292442905508316e-02
2.540000000000000036e+00 -5.497680723768771927e-02
2.550000000000000266e+00 -6.426489965612913746e-02
2.560000000000000053e+00 -6.491326648882568551e-02
2.569999999999999840e+00 -5.799768079916702013e-02
2.580000000000000071e+00 -4.364760753386446451e-02
2.589999999999999858e+00 -2.303489037483843691e-02
2.600000000000000089e+00 2.662734505326811579e-03
2.609999999999999876e+00 3.215031887854032100e-02
2.620000000000000107e+00 6.373690169222753776e-02
2.629999999999999893e+00 9.588268745921531278e-02
2.640000000000000124e+00 1.270852529048467072e-01
2.649999999999999911e+00 1.554275280740276544e-01
2.660000000000000142e+00 1.801147631622893042e-01
2.669999999999999929e+00 1.992701307252550680e-01
2.680000000000000160e+00 2.126747257560466786e-01
2.689999999999999947e+00 2.191244778561112772e-01
2.700000000000000178e+00 2.187255548535109173e-01
2.709999999999999964e+00 2.113184306593599293e-01
2.720000000000000195e+00 1.972209309809358768e-01
2.729999999999999982e+00 1.773199002026539794e-01
2.740000000000000213e+00 1.521584420986104857e-01
2.750000000000000000e+00 1.233267081935026377e-01
2.760000000000000231e+00 9.170956643721642210e-02
2.770000000000000018e+00 5.901597360705015255e-02
2.780000000000000249e+00 2.661718985138757099e-02
2.790000000000000036e+00 -4.186151859225897831e-03
2.800000000000000266e+00 -3.183398102130248486e-02
2.810000000000000053e+00 -5.546228292026063322e-02
2.819999999999999840e+00 -7.389685814467962521e-02
2.830000000000000071e+00 -8.655837664969259770e-02
2.839999999999999858e+00 -9.311166633620135413e-02
2.850000000000000089e+00 -9.317620811768138889e-02
2.859999999999999876e+00 -8.741295704641893760e-02
2.870000000000000107e+00 -7.566214365153492438e-02
2.879999999999999893e+00 -5.940360350023306951e-02
2.890000000000000124e+00 -3.882449510098875955e-02
2.899999999999999911e+00 -1.571262232439499598e-02
2.910000000000000142e+00 9.070163320444810454e-03
2.919999999999999929e+00 3.403913081305903754e-02
2.930000000000000160e+00 5.792177396821507340e-02
2.939999999999999947e+00 7.952455944280471811e-02
2.950000000000000178e+00 9.773204051039180440e-02
2.959999999999999964e+00 1.115400070860630560e-01
2.970000000000000195e+00 1.204873688368745949e-01
2.979999999999999982e+00 1.237012490575917362e-01
2.990000000000000213e+00 1.216418721651740115e-01
3.000000000000000000e+00 1.136052618223271915e-01
3.010000000000000231e+00 1.008757900145449554e-01
3.020000000000000018e+00 8.323139240004771844e-02
3.030000000000000249e+00 6.225092269836617759e-02
3.040000000000000036e+00 3.851852297638537481e-02
3.050000000000000266e+00 1.346275199194948979e-02
3.060000000000000053e+00 -1.179225682432224857e-02
3.070000000000000284e+00 -3.592997164334454235e-02
3.080000000000000071e+00 -5.782558929788940427e-02
3.089999999999999858e+00 -7.619292669709479271e-02
3.100000000000000089e+00 -9.043513225269339539e-02
3.109999999999999876e+00 -9.924349939327622994e-02
3.120000000000000107e+00 -1.029147590127844902e-01
3.129999999999999893e+00 -1.001533139326050148e-01
3.140000000000000124e+00 -9.207746035788678951e-02
3.149999999999999911e+00 -7.805195838586412305e-02
3.160000000000000142e+00 -5.935371661907939966e-02
3.169999999999999929e+00 -3.627181173150405974e-02
3.180000000000000160e+00 -1.006739425650854391e-02
3.189999999999999947e+00 1.828411211721443427e-02
3.200000000000000178e+00 4.751051965665515492e-02
3.209999999999999964e+00 7.642581184883943946e-02
3.220000000000000195e+00 1.036622710986963153e-01
3.229999999999999982e+00 1.283672577791777625e-01
3.240000000000000213e+00 1.490028895609172566e-01
3.250000000000000000e+00 1.654459158402299401e-01
3.260000000000000231e+00 1.761761274675258115e-01
3.270000000000000018e+00 1.817067997051091677e-01
3.280000000000000249e+00 1.811555529079252325e-01
3.290000000000000036e+00 1.752206927852270890e-01
3.300000000000000266e+00 1.639164448002839447e-01
3.310000000000000053e+00 1.480339573593580649e-01
3.320000000000000284e+00 1.283633095581395711e-01
3.330000000000000071e+00 1.057976125032121517e-01
3.339999999999999858e+00 8.153680728146937839e-02
3.350000000000000089e+00 5.665424750597507220e-02
3.359999999999999876e+00 3.225676660047394756e-02
3.370000000000000107e+00 9.686530385694901851e-03
3.379999999999999893e+00 -1.043731156762948281e-02
3.390000000000000124e+00 -2.677884853530620307e-02
3.399999999999999911e+00 -3.915457937146028800e-02
3.410000000000000142e+00 -4.669515717175040659e-02
3.419999999999999929e+00 -4.947335702050458667e-02
3.430000000000000160e+00 -4.736697544978599878e-02
3.439999999999999947e+00 -4.062431318196964292e-02
3.450000000000000178e+00 -2.987599912754253934e-02
3.459999999999999964e+00 -1.555443372823786183e-02
3.470000000000000195e+00 1.209253238718285134e-03
3.479999999999999982e+00 1.971821858903090308e-02
3.490000000000000213e+00 3.877111180108389066e-02
3.500000000000000000e+00 5.731888393783961255e-02
3.510000000000000231e+00 7.446914078997733666e-02
3.520000000000000018e+00 8.906489991488551750e-02
3.530000000000000249e+00 1.005379935999668600e-01
3.540000000000000036e+00 1.080544900226909633e-01
3.550000000000000266e+00 1.112690319566169983e-01
3.560000000000000053e+00 1.099967754041601825e-01
3.570000000000000284e+00 1.040663273850974957e-01
3.580000000000000071e+00 9.403547861841955735e-02
3.589999999999999858e+00 7.994050311497455374e-02
3.600000000000000089e+00 6.291557397994911038e-02
3.609999999999999876e+00 4.331537600638578345e-02
3.620000000000000107e+00 2.245414838622130510e-02
3.629999999999999893e+00 1.188915725892596489e-03
3.640000000000000124e+00 -1.939491558178478223e-02
3.649999999999999911e+00 -3.818983771801284094e-02
3.660000000000000142e+00 -5.431657032787786527e-02
3.669999999999999929e+00 -6.687724554415228062e-02
3.680000000000000160e+00 -7.511523243506555703e-02
3.689999999999999947e+00 -7.873260214415767066e-02
3.700000000000000178e+00 -7.705439059120351708e-02
3.709999999999999964e+00 -7.057737373244853119e-02
3.720000000000000195e+00 -5.874941203253076366e-02
3.729999999999999982e+00 -4.275749819521703493e-02
3.740000000000000213e+00 -2.243528342003793530e-02
3.750000000000000000e+00 8.007863102143331167e-04
3.760000000000000231e+00 2.643699193536704073e-02
3.770000000000000018e+00 5.322471940357698800e-02
3.780000000000000249e+00 8.019668206667374122e-02
3.790000000000000036e+00 1.062266655529583159e-01
3.800000000000000266e+00 1.303542637233066626e-01
3.810000000000000053e+00 1.514969064917676966e-01
3.820000000000000284e+00 1.691452731761865502e-01
3.830000000000000071e+00 1.822083070625340195e-01
3.839999999999999858e+00 1.909306633568949585e-01
3.850000000000000089e+00 1.942359217904766622e-01
3.859999999999999876e+00 1.930625985246477438e-01
