# [DEFAULT]
# # input and output specifications
# dataformat = QA
# outputtype = gr
# 
# # PDF calculation setup
# mode = xray
# wavelength = 
# composition = Cl4.0Cr1.0Na1.0
# bgscale = 1.0
# rpoly = 0.9
# qmaxinst = 28
# qmin = 0.0
# qmax = 22
# rmin = 0.0
# rmax = 30.0
# rstep = 0.01
# 
# # End of config --------------------------------------------------------------
# 
# #### start data
# #S 1
# #L r(Å)  G(Å$^$)
# 
0.000000000000000000e+00 0.000000000000000000e+00
1.000000000000000021e-02 -1.618880879701709539e-03
2.000000000000000042e-02 -3.413658232992579627e-03
2.999999999999999889e-02 -5.586737067814318003e-03
4.000000000000000083e-02 -8.218503898445958522e-03
5.000000000000000278e-02 -1.141760898531422354e-02
5.999999999999999778e-02 -1.515240071763297378e-02
7.000000000000000666e-02 -1.935623131948331632e-02
8.000000000000000167e-02 -2.386727625741190406e-02
8.999999999999999667e-02 -2.845652521122115503e-02
1.000000000000000056e-01 -3.280595856743919597e-02
1.100000000000000006e-01 -3.663922290766780110e-02
1.199999999999999956e-01 -3.945802848093417359e-02
1.300000000000000044e-01 -4.109444111997787724e-02
1.400000000000000133e-01 -4.095677942807082750e-02
1.499999999999999944e-01 -3.903360227553379774e-02
1.600000000000000033e-01 -3.488928510009457057e-02
1.700000000000000122e-01 -2.861614960977025210e-02
1.799999999999999933e-01 -2.012734208820355503e-02
1.900000000000000022e-01 -9.636972355438852555e-03
2.000000000000000111e-01 2.535604922231348042e-03
2.099999999999999922e-01 1.599827897276983810e-02
2.200000000000000011e-01 3.013033741993903503e-02
2.300000000000000100e-01 4.427008177645290476e-02
2.399999999999999911e-01 5.775754078221472659e-02
2.500000000000000000e-01 6.956245342633680939e-02
2.600000000000000089e-01 7.924101683364488669e-02
2.700000000000000178e-01 8.565239920287645581e-02
2.800000000000000266e-01 8.852579411698953404e-02
2.899999999999999800e-01 8.701038942036014301e-02
2.999999999999999889e-01 8.096628709926374790e-02
3.099999999999999978e-01 7.016359513212792887e-02
3.200000000000000067e-01 5.460702515931655648e-02
3.300000000000000155e-01 3.483197450602892875e-02
3.400000000000000244e-01 1.109030675251457959e-02
3.500000000000000333e-01 -1.543660721552327780e-02
3.599999999999999867e-01 -4.405451401569145109e-02
3.699999999999999956e-01 -7.332086828212068530e-02
3.800000000000000044e-01 -1.018787800553471179e-01
3.900000000000000133e-01 -1.284386317828101476e-01
4.000000000000000222e-01 -1.512389122104184636e-01
4.100000000000000311e-01 -1.691521635657047273e-01
4.199999999999999845e-01 -1.806250411094096897e-01
4.299999999999999933e-01 -1.845812283358118089e-01
4.400000000000000022e-01 -1.803066099094636499e-01
4.500000000000000111e-01 -1.667342395763748708e-01
4.600000000000000200e-01 -1.444175846220022430e-01
4.700000000000000289e-01 -1.124020351869590983e-01
4.799999999999999822e-01 -7.257936198684153406e-02
4.899999999999999911e-01 -2.439469104966064672e-02
5.000000000000000000e-01 2.944970873744089460e-02
5.100000000000000089e-01 8.817446008672613633e-02
5.200000000000000178e-01 1.492524831712159217e-01
5.300000000000000266e-01 2.107021251208889834e-01
5.400000000000000355e-01 2.700578084811731672e-01
5.500000000000000444e-01 3.249609095118349833e-01
5.600000000000000533e-01 3.727774174518849182e-01
5.700000000000000622e-01 4.117785666660531696e-01
5.799999999999999600e-01 4.389512027513756687e-01
5.899999999999999689e-01 4.541274345641749255e-01
5.999999999999999778e-01 4.538527014399267312e-01
6.099999999999999867e-01 4.398659797455387044e-01
6.199999999999999956e-01 4.092228472236990044e-01
6.300000000000000044e-01 3.646442596807758507e-01
6.400000000000000133e-01 3.051373177581769291e-01
6.500000000000000222e-01 2.334039993958344494e-01
6.600000000000000311e-01 1.506330103563706946e-01
6.700000000000000400e-01 5.955986880744564005e-02
6.800000000000000488e-01 -3.708839002353027381e-02
6.900000000000000577e-01 -1.362663269800548915e-01
7.000000000000000666e-01 -2.348278709964598254e-01
7.099999999999999645e-01 -3.290254875780024291e-01
7.199999999999999734e-01 -4.166396986463322127e-01
7.299999999999999822e-01 -4.928710506712811190e-01
7.399999999999999911e-01 -5.571650163418080393e-01
7.500000000000000000e-01 -6.050791952625371728e-01
7.600000000000000089e-01 -6.367969649558076206e-01
7.700000000000000178e-01 -6.496285774271589597e-01
7.800000000000000266e-01 -6.440517460556840490e-01
7.900000000000000355e-01 -6.198426337766563821e-01
8.000000000000000444e-01 -5.776208599013828993e-01
8.100000000000000533e-01 -5.196339880232182518e-01
8.200000000000000622e-01 -4.467909034582994154e-01
8.300000000000000711e-01 -3.631091948141055847e-01
8.399999999999999689e-01 -2.701888372490913737e-01
8.499999999999999778e-01 -1.725294234727035858e-01
8.599999999999999867e-01 -7.303323351087839810e-02
8.699999999999999956e-01 2.462193261412698453e-02
8.800000000000000044e-01 1.166901675729828808e-01
8.900000000000000133e-01 2.004092449441589319e-01
9.000000000000000222e-01 2.725248271736037675e-01
9.100000000000000311e-01 3.307647638654933053e-01
9.200000000000000400e-01 3.736206465135084587e-01
9.300000000000000488e-01 3.990253081424143256e-01
9.400000000000000577e-01 4.079283957236686242e-01
9.500000000000000666e-01 3.984484089397611339e-01
9.599999999999999645e-01 3.739867620762801770e-01
9.699999999999999734e-01 3.331339492430688276e-01
9.799999999999999822e-01 2.806591107220515191e-01
9.899999999999999911e-01 2.171994140310145593e-01
1.000000000000000000e+00 1.469289268431838436e-01
1.010000000000000009e+00 7.234566711812639994e-02
1.020000000000000018e+00 -2.925653839556396907e-03
1.030000000000000027e+00 -7.578249493915240054e-02
1.040000000000000036e+00 -1.428624439527809986e-01
1.050000000000000044e+00 -2.018363994345989676e-01
1.060000000000000053e+00 -2.493276453928604253e-01
1.070000000000000062e+00 -2.849004904469686350e-01
1.080000000000000071e+00 -3.050622735847434708e-01
1.090000000000000080e+00 -3.116063174134323654e-01
1.100000000000000089e+00 -3.018111029414720092e-01
1.110000000000000098e+00 -2.786441268590099107e-01
1.120000000000000107e+00 -2.414951238661741939e-01
1.130000000000000115e+00 -1.933325074583626402e-01
1.140000000000000124e+00 -1.356695306142909896e-01
1.150000000000000133e+00 -7.143078551123417663e-02
1.159999999999999920e+00 -3.379095723883028535e-03
1.169999999999999929e+00 6.542744824804343218e-02
1.179999999999999938e+00 1.322080854406519901e-01
1.189999999999999947e+00 1.935140743580344713e-01
1.199999999999999956e+00 2.478049292098764289e-01
1.209999999999999964e+00 2.910713204416611188e-01
1.219999999999999973e+00 3.235310398049402458e-01
1.229999999999999982e+00 3.419702751902950477e-01
1.239999999999999991e+00 3.473612112826863774e-01
1.250000000000000000e+00 3.383494550564548065e-01
1.260000000000000009e+00 3.162487959899792367e-01
1.270000000000000018e+00 2.818016316458559212e-01
1.280000000000000027e+00 2.365617088977328974e-01
1.290000000000000036e+00 1.829306295314833963e-01
1.300000000000000044e+00 1.228360103440707951e-01
1.310000000000000053e+00 5.938072115110118454e-02
1.320000000000000062e+00 -4.858640613218799531e-03
1.330000000000000071e+00 -6.722750219340888067e-02
1.340000000000000080e+00 -1.244459043893913069e-01
1.350000000000000089e+00 -1.749372237543766195e-01
1.360000000000000098e+00 -2.156424079733295363e-01
1.370000000000000107e+00 -2.457188100154492350e-01
1.380000000000000115e+00 -2.633745676392714730e-01
1.390000000000000124e+00 -2.681898506710947983e-01
1.400000000000000133e+00 -2.602347284204989397e-01
1.409999999999999920e+00 -2.393875636537484697e-01
1.419999999999999929e+00 -2.075749592751964245e-01
1.429999999999999938e+00 -1.650753965433058856e-01
1.439999999999999947e+00 -1.150794947353857844e-01
1.449999999999999956e+00 -5.855176846425216158e-02
1.459999999999999964e+00 1.111684060097466870e-03
1.469999999999999973e+00 6.179894827055241319e-02
1.479999999999999982e+00 1.208770279086158611e-01
1.489999999999999991e+00 1.757607254391078400e-01
1.500000000000000000e+00 2.243844113795039619e-01
1.510000000000000009e+00 2.647635864304105358e-01
1.520000000000000018e+00 2.951456204518307924e-01
1.530000000000000027e+00 3.149775650361781310e-01
1.540000000000000036e+00 3.226804728614380835e-01
1.550000000000000044e+00 3.194970519750944815e-01
1.560000000000000053e+00 3.040749155202993603e-01
1.570000000000000062e+00 2.791246069001420138e-01
1.580000000000000071e+00 2.441802076274161848e-01
1.590000000000000080e+00 2.022979726937873257e-01
1.600000000000000089e+00 1.544593463019894586e-01
1.610000000000000098e+00 1.032951504444556690e-01
1.620000000000000107e+00 5.072421031161285232e-02
1.630000000000000115e+00 -9.483221445372707475e-04
1.640000000000000124e+00 -4.980445333365209060e-02
1.650000000000000133e+00 -9.369439947842636562e-02
1.660000000000000142e+00 -1.315744723282823159e-01
1.669999999999999929e+00 -1.613314607496134645e-01
1.679999999999999938e+00 -1.833681971399145627e-01
1.689999999999999947e+00 -1.956345992894720220e-01
1.699999999999999956e+00 -1.998242370245069399e-01
1.709999999999999964e+00 -1.949777496012131406e-01
1.719999999999999973e+00 -1.829891958790682560e-01
1.729999999999999982e+00 -1.643166709791716862e-01
1.739999999999999991e+00 -1.408279066002267599e-01
1.750000000000000000e+00 -1.139876260414849074e-01
1.760000000000000009e+00 -8.565682194641464908e-02
1.770000000000000018e+00 -5.757849165863500318e-02
1.780000000000000027e+00 -3.171565006938777131e-02
1.790000000000000036e+00 -9.289137684011676555e-03
1.800000000000000044e+00 7.542032119615302635e-03
1.810000000000000053e+00 1.861854281677526382e-02
1.820000000000000062e+00 2.191060036472380207e-02
1.830000000000000071e+00 1.813319858241721483e-02
1.840000000000000080e+00 6.204257824850462587e-03
1.850000000000000089e+00 -1.288261985902970294e-02
1.860000000000000098e+00 -3.896388485664499524e-02
1.870000000000000107e+00 -7.089993005302179518e-02
1.880000000000000115e+00 -1.075067402466695077e-01
1.890000000000000124e+00 -1.474893757022941732e-01
1.900000000000000133e+00 -1.891958962339301276e-01
1.910000000000000142e+00 -2.310762348259285115e-01
1.919999999999999929e+00 -2.717208067892596945e-01
1.929999999999999938e+00 -3.092190287108443902e-01
1.939999999999999947e+00 -3.428992740534834160e-01
1.949999999999999956e+00 -3.709654078808887201e-01
1.959999999999999964e+00 -3.933009944692294479e-01
1.969999999999999973e+00 -4.088355074680881662e-01
1.979999999999999982e+00 -4.177678816028736475e-01
1.989999999999999991e+00 -4.200638591463101701e-01
2.000000000000000000e+00 -4.161220578432435757e-01
2.010000000000000231e+00 -4.068797895714297286e-01
2.020000000000000018e+00 -3.929311871138018164e-01
2.030000000000000249e+00 -3.757942233738072457e-01
2.040000000000000036e+00 -3.563312418245069835e-01
2.049999999999999822e+00 -3.360569654700566455e-01
2.060000000000000053e+00 -3.161652880822150014e-01
2.069999999999999840e+00 -2.976886790987556819e-01
2.080000000000000071e+00 -2.818162699791597059e-01
2.089999999999999858e+00 -2.690810566927922531e-01
2.100000000000000089e+00 -2.601675493685667861e-01
2.109999999999999876e+00 -2.552119367778672987e-01
2.120000000000000107e+00 -2.540975946308940969e-01
2.129999999999999893e+00 -2.565894103193949727e-01
2.140000000000000124e+00 -2.618103676278739078e-01
2.149999999999999911e+00 -2.690829333896994635e-01
2.160000000000000142e+00 -2.771407157383485309e-01
2.169999999999999929e+00 -2.847270931618905432e-01
2.180000000000000160e+00 -2.906902478442039417e-01
2.189999999999999947e+00 -2.933504015519859398e-01
2.200000000000000178e+00 -2.918706575001874248e-01
2.209999999999999964e+00 -2.847203629401273695e-01
2.220000000000000195e+00 -2.712888883922174310e-01
2.229999999999999982e+00 -2.507927488458936982e-01
2.240000000000000213e+00 -2.227968228860689737e-01
2.250000000000000000e+00 -1.876270021326766901e-01
2.260000000000000231e+00 -1.450782785126873697e-01
2.270000000000000018e+00 -9.658611390487098491e-02
2.280000000000000249e+00 -4.236676259661338595e-02
2.290000000000000036e+00 1.546454909188619067e-02
2.300000000000000266e+00 7.586815089181155047e-02
2.310000000000000053e+00 1.367488747753593525e-01
2.319999999999999840e+00 1.962392745120403736e-01
2.330000000000000071e+00 2.525205819430337284e-01
2.339999999999999858e+00 3.035511138975411360e-01
2.350000000000000089e+00 3.476197532898184783e-01
2.359999999999999876e+00 3.833360330836593222e-01
2.370000000000000107e+00 4.089441230299366570e-01
2.379999999999999893e+00 4.243684366191984858e-01
2.390000000000000124e+00 4.277702487417385790e-01
2.399999999999999911e+00 4.207043434935832105e-01
2.410000000000000142e+00 4.013899973893507167e-01
2.419999999999999929e+00 3.725817848935554233e-01
2.430000000000000160e+00 3.337584062356788728e-01
2.439999999999999947e+00 2.875718121255432247e-01
2.450000000000000178e+00 2.350218010723246209e-01
2.459999999999999964e+00 1.785183193495430143e-01
2.470000000000000195e+00 1.199924852677191622e-01
2.479999999999999982e+00 6.176482938550681423e-02
2.490000000000000213e+00 5.822856099095611443e-03
2.500000000000000000e+00 -4.539218490055452193e-02
2.510000000000000231e+00 -9.072605331444892618e-02
2.520000000000000018e+00 -1.274617228195767393e-01
2.530000000000000249e+00 -1.558219025234622579e-01
2.540000000000000036e+00 -1.732096944313401277e-01
2.550000000000000266e+00 -1.808645188663153269e-01
2.560000000000000053e+00 -1.773855616587089457e-01
2.569999999999999840e+00 -1.641890238068192120e-01
2.580000000000000071e+00 -1.414343033357021717e-01
2.589999999999999858e+00 -1.105834122432060862e-01
2.600000000000000089e+00 -7.308221121568381218e-02
2.609999999999999876e+00 -3.048547921985010276e-02
2.620000000000000107e+00 1.511814785364494484e-02
2.629999999999999893e+00 6.191801319397843145e-02
2.640000000000000124e+00 1.080183000919045788e-01
2.649999999999999911e+00 1.511720480565339197e-01
2.660000000000000142e+00 1.903055788945194893e-01
2.669999999999999929e+00 2.231755044842384794e-01
2.680000000000000160e+00 2.494049957892336689e-01
2.689999999999999947e+00 2.674889460014043818e-01
2.700000000000000178e+00 2.774347166683051036e-01
2.709999999999999964e+00 2.789355969514420441e-01
2.720000000000000195e+00 2.722248969588973999e-01
2.729999999999999982e+00 2.582348510472160519e-01
2.740000000000000213e+00 2.374155671911002130e-01
2.750000000000000000e+00 2.115835188243260778e-01
2.760000000000000231e+00 1.815208756918436084e-01
2.770000000000000018e+00 1.492775957508484241e-01
2.780000000000000249e+00 1.161674256425943574e-01
2.790000000000000036e+00 8.382058306131126568e-02
2.800000000000000266e+00 5.384444194503312797e-02
2.810000000000000053e+00 2.733662461154414205e-02
2.819999999999999840e+00 5.582827411000586271e-03
2.830000000000000071e+00 -1.068365486733768334e-02
2.839999999999999858e+00 -2.101676599511822022e-02
2.850000000000000089e+00 -2.494389517225970368e-02
2.859999999999999876e+00 -2.305920672271874472e-02
2.870000000000000107e+00 -1.516083544964373295e-02
2.879999999999999893e+00 -2.719579326547871823e-03
2.890000000000000124e+00 1.407251151391656317e-02
2.899999999999999911e+00 3.339356664909475664e-02
2.910000000000000142e+00 5.433009034897200162e-02
2.919999999999999929e+00 7.534534810721044140e-02
2.930000000000000160e+00 9.508909193738804277e-02
2.939999999999999947e+00 1.123094838349150415e-01
2.950000000000000178e+00 1.258236958650189030e-01
2.959999999999999964e+00 1.345683403842714287e-01
2.970000000000000195e+00 1.380617006733365904e-01
2.979999999999999982e+00 1.353772706386215108e-01
2.990000000000000213e+00 1.270234634767767046e-01
3.000000000000000000e+00 1.122613452490970193e-01
3.010000000000000231e+00 9.248656710731556485e-02
3.020000000000000018e+00 6.749378653807319717e-02
3.030000000000000249e+00 3.899895712852522595e-02
3.040000000000000036e+00 7.679427387508494865e-03
3.050000000000000266e+00 -2.489856046861006408e-02
3.060000000000000053e+00 -5.746785626920421913e-02
3.070000000000000284e+00 -8.856206940078426015e-02
3.080000000000000071e+00 -1.169180992767620553e-01
3.089999999999999858e+00 -1.410712606568643168e-01
3.100000000000000089e+00 -1.603516662409052163e-01
3.109999999999999876e+00 -1.732289714869451325e-01
3.120000000000000107e+00 -1.800441396032729791e-01
3.129999999999999893e+00 -1.792313601592988304e-01
3.140000000000000124e+00 -1.720664226871590763e-01
3.149999999999999911e+00 -1.577073590913194434e-01
3.160000000000000142e+00 -1.375951694885458876e-01
3.169999999999999929e+00 -1.119459249655653521e-01
3.180000000000000160e+00 -8.216193069113630898e-02
3.189999999999999947e+00 -4.928079792205497522e-02
3.200000000000000178e+00 -1.469609875977694394e-02
3.209999999999999964e+00 2.024315252159715126e-02
3.220000000000000195e+00 5.405134309484973393e-02
3.229999999999999982e+00 8.566867927415157402e-02
3.240000000000000213e+00 1.134185866968365625e-01
3.250000000000000000e+00 1.369917681622269123e-01
3.260000000000000231e+00 1.546885647247550899e-01
3.270000000000000018e+00 1.668986460912206815e-01
3.280000000000000249e+00 1.725537894595874089e-01
3.290000000000000036e+00 1.722725984788616993e-01
3.300000000000000266e+00 1.659325590857744503e-01
3.310000000000000053e+00 1.542613766473536763e-01
3.320000000000000284e+00 1.380021979416810873e-01
3.330000000000000071e+00 1.179825036541737732e-01
3.339999999999999858e+00 9.546108408697930037e-02
3.350000000000000089e+00 7.143704501827644049e-02
3.359999999999999876e+00 4.717260485372804651e-02
3.370000000000000107e+00 2.393237764359514019e-02
3.379999999999999893e+00 2.540501118666084902e-03
3.390000000000000124e+00 -1.568344168898782448e-02
3.399999999999999911e+00 -3.038601633694115040e-02
3.410000000000000142e+00 -4.064457706364701939e-02
3.419999999999999929e+00 -4.640276521616164968e-02
3.430000000000000160e+00 -4.744962629515112051e-02
3.439999999999999947e+00 -4.393147805079481577e-02
3.450000000000000178e+00 -3.639294585375635327e-02
3.459999999999999964e+00 -2.517632381167688588e-02
3.470000000000000195e+00 -1.136013851167038194e-02
3.479999999999999982e+00 4.449929847798583110e-03
3.490000000000000213e+00 2.105670119008185709e-02
3.500000000000000000e+00 3.750080218308283336e-02
3.510000000000000231e+00 5.286016456544756492e-02
3.520000000000000018e+00 6.603784990659317122e-02
3.530000000000000249e+00 7.643564237718505905e-02
3.540000000000000036e+00 8.324010236749015967e-02
3.550000000000000266e+00 8.608597409790817723e-02
3.560000000000000053e+00 8.477382905975765215e-02
3.570000000000000284e+00 7.912761549732548472e-02
3.580000000000000071e+00 6.966467518351306121e-02
3.589999999999999858e+00 5.643330451151166993e-02
3.600000000000000089e+00 4.051119654586589347e-02
3.609999999999999876e+00 2.228133505930143810e-02
3.620000000000000107e+00 2.999068364600950692e-03
3.629999999999999893e+00 -1.645371581556320795e-02
3.640000000000000124e+00 -3.503046720139512543e-02
3.649999999999999911e+00 -5.161032504945627097e-02
3.660000000000000142e+00 -6.533282031371928644e-02
3.669999999999999929e+00 -7.529835683833228932e-02
3.680000000000000160e+00 -8.075332932947849873e-02
3.689999999999999947e+00 -8.141068883216524832e-02
3.700000000000000178e+00 -7.658685163949363606e-02
3.709999999999999964e+00 -6.680353790604645625e-02
3.720000000000000195e+00 -5.149297951365387760e-02
3.729999999999999982e+00 -3.187950381803732192e-02
3.740000000000000213e+00 -7.784548689723761253e-03
3.750000000000000000e+00 1.933528640942912269e-02
3.760000000000000231e+00 4.896122611784731876e-02
3.770000000000000018e+00 7.981020687587681017e-02
3.780000000000000249e+00 1.108928335514268587e-01
3.790000000000000036e+00 1.410493993438890481e-01
3.800000000000000266e+00 1.692881602813393893e-01
3.810000000000000053e+00 1.944876311843235228e-01
3.820000000000000284e+00 2.161087027565952168e-01
3.830000000000000071e+00 2.330083235665991459e-01
3.839999999999999858e+00 2.454153721414983058e-01
3.850000000000000089e+00 2.521800964903906372e-01
3.859999999999999876e+00 2.542440368690458419e-01
