# [DEFAULT]
# # input and output specifications
# dataformat = QA
# outputtype = gr
# 
# # PDF calculation setup
# mode = xray
# wavelength = 
# composition = Cl4.0Cr1.0Na1.0
# bgscale = 1.0
# rpoly = 0.9
# qmaxinst = 28
# qmin = 0.0
# qmax = 22
# rmin = 0.0
# rmax = 30.0
# rstep = 0.01
# 
# # End of config --------------------------------------------------------------
# 
# #### start data
# #S 1
# #L r(Å)  G(Å$^$)
# 
0.000000000000000000e+00 0.000000000000000000e+00
1.000000000000000021e-02 -2.322216092896910861e-03
2.000000000000000042e-02 -4.788624159316232087e-03
2.999999999999999889e-02 -7.562771913264932679e-03
4.000000000000000083e-02 -1.070446878476435069e-02
5.000000000000000278e-02 -1.428974909803060363e-02
5.999999999999999778e-02 -1.827394171746325041e-02
7.000000000000000666e-02 -2.257645676045280311e-02
8.000000000000000167e-02 -2.702767231134448403e-02
8.999999999999999667e-02 -3.140908938970019687e-02
1.000000000000000056e-01 -3.540028102830629353e-02
1.100000000000000006e-01 -3.875735233225387905e-02
1.199999999999999956e-01 -4.098787009783257801e-02
1.300000000000000044e-01 -4.196729079681550678e-02
1.400000000000000133e-01 -4.112501096585007010e-02
1.499999999999999944e-01 -3.848892593932383421e-02
1.600000000000000033e-01 -3.365696431616930356e-02
1.700000000000000122e-01 -2.675274952018551547e-02
1.799999999999999933e-01 -1.772199221384274798e-02
1.900000000000000022e-01 -6.804787816527519718e-03
2.000000000000000111e-01 5.662002838281430563e-03
2.099999999999999922e-01 1.926365102335800966e-02
2.200000000000000011e-01 3.338583672872072472e-02
2.300000000000000100e-01 4.734797913904765371e-02
2.399999999999999911e-01 6.052138800387729667e-02
2.500000000000000000e-01 7.186394810319651771e-02
2.600000000000000089e-01 8.097753840296870176e-02
2.700000000000000178e-01 8.673131151245527803e-02
2.800000000000000266e-01 8.889549336797804291e-02
2.899999999999999800e-01 8.664756518807910368e-02
2.999999999999999889e-01 7.988436974090322440e-02
3.099999999999999978e-01 6.840848257173517966e-02
3.200000000000000067e-01 5.225920925300901049e-02
3.300000000000000155e-01 3.199355379212635159e-02
3.400000000000000244e-01 7.897639689925184392e-03
3.500000000000000333e-01 -1.884793443551201556e-02
3.599999999999999867e-01 -4.751526914385614808e-02
3.699999999999999956e-01 -7.668692478232257137e-02
3.800000000000000044e-01 -1.049841174834402618e-01
3.900000000000000133e-01 -1.311536019301108857e-01
4.000000000000000222e-01 -1.534361915368022966e-01
4.100000000000000311e-01 -1.707403670278673791e-01
4.199999999999999845e-01 -1.815362367908908703e-01
4.299999999999999933e-01 -1.847828308588889690e-01
4.400000000000000022e-01 -1.797981895252770135e-01
4.500000000000000111e-01 -1.655517948383200821e-01
4.600000000000000200e-01 -1.426228079675632976e-01
4.700000000000000289e-01 -1.100957646385532507e-01
4.799999999999999822e-01 -6.986827568034702229e-02
4.899999999999999911e-01 -2.142699524868727293e-02
5.000000000000000000e-01 3.254226692069301513e-02
5.100000000000000089e-01 9.123498520609805984e-02
5.200000000000000178e-01 1.521476419030647065e-01
5.300000000000000266e-01 2.132989204393715699e-01
5.400000000000000355e-01 2.722507360653387831e-01
5.500000000000000444e-01 3.266670466934264994e-01
5.600000000000000533e-01 3.739453016382082717e-01
5.700000000000000622e-01 4.123904361274514097e-01
5.799999999999999600e-01 4.390266681601999732e-01
5.899999999999999689e-01 4.537152844586959111e-01
5.999999999999999778e-01 4.530469733314430036e-01
6.099999999999999867e-01 4.387721205220133092e-01
6.199999999999999956e-01 4.079922922608651414e-01
6.300000000000000044e-01 3.634223174644024001e-01
6.400000000000000133e-01 3.040976320919148712e-01
6.500000000000000222e-01 2.327056089521002680e-01
6.600000000000000311e-01 1.504354487985432032e-01
6.700000000000000400e-01 6.000111197742496322e-02
6.800000000000000488e-01 -3.589662806410684470e-02
6.900000000000000577e-01 -1.342426676952617193e-01
7.000000000000000666e-01 -2.319331412083140143e-01
7.099999999999999645e-01 -3.252641033089954670e-01
7.199999999999999734e-01 -4.120561736288841370e-01
7.299999999999999822e-01 -4.875719101292313451e-01
7.399999999999999911e-01 -5.512801746172905082e-01
7.500000000000000000e-01 -5.988037777712414966e-01
7.600000000000000089e-01 -6.303379419607474388e-01
7.700000000000000178e-01 -6.432399176800988050e-01
7.800000000000000266e-01 -6.379929190188090571e-01
7.900000000000000355e-01 -6.143862892775007190e-01
8.000000000000000444e-01 -5.730407901949350347e-01
8.100000000000000533e-01 -5.161778359108808445e-01
8.200000000000000622e-01 -4.447006507549059462e-01
8.300000000000000711e-01 -3.625678826175399161e-01
8.399999999999999689e-01 -2.713600676930550404e-01
8.499999999999999778e-01 -1.755035635300274677e-01
8.599999999999999867e-01 -7.785537396169429913e-02
8.699999999999999956e-01 1.797201701089635312e-02
8.800000000000000044e-01 1.082986026593020512e-01
8.900000000000000133e-01 1.904162071438112724e-01
9.000000000000000222e-01 2.611341700904937224e-01
9.100000000000000311e-01 3.182300604753586781e-01
9.200000000000000400e-01 3.602322721069737277e-01
9.300000000000000488e-01 3.851244916435319077e-01
9.400000000000000577e-01 3.938487801738114746e-01
9.500000000000000666e-01 3.845769113035114040e-01
9.599999999999999645e-01 3.606524724357368372e-01
9.699999999999999734e-01 3.207172776425102900e-01
9.799999999999999822e-01 2.694495871400630627e-01
9.899999999999999911e-01 2.074977449297931431e-01
1.000000000000000000e+00 1.389541684045591807e-01
1.010000000000000009e+00 6.628384898891720445e-02
1.020000000000000018e+00 -6.960167733953427291e-03
1.030000000000000027e+00 -7.773272745226181279e-02
1.040000000000000036e+00 -1.427383106385428646e-01
1.050000000000000044e+00 -1.997039196162730124e-01
1.060000000000000053e+00 -2.453214839649396628e-01
1.070000000000000062e+00 -2.791856404176326079e-01
1.080000000000000071e+00 -2.978788127493888216e-01
1.090000000000000080e+00 -3.031858564070176731e-01
1.100000000000000089e+00 -2.924541166032317285e-01
1.110000000000000098e+00 -2.686168110188578706e-01
1.120000000000000107e+00 -2.310990069583121753e-01
1.130000000000000115e+00 -1.828310932915778175e-01
1.140000000000000124e+00 -1.253203945583544199e-01
1.150000000000000133e+00 -6.145373479987557841e-02
1.159999999999999920e+00 6.044662637601040667e-03
1.169999999999999929e+00 7.415483310039228115e-02
1.179999999999999938e+00 1.401498606780696154e-01
1.189999999999999947e+00 2.006228298377870090e-01
1.199999999999999956e+00 2.540812091590398669e-01
1.209999999999999964e+00 2.965645825659500856e-01
1.219999999999999973e+00 3.283175739834354179e-01
1.229999999999999982e+00 3.461719301279397309e-01
1.239999999999999991e+00 3.511079950242338987e-01
1.250000000000000000e+00 3.417977524732712102e-01
1.260000000000000009e+00 3.195511132441609115e-01
1.270000000000000018e+00 2.851092625817168158e-01
1.280000000000000027e+00 2.400132840967089953e-01
1.290000000000000036e+00 1.866382363263661415e-01
1.300000000000000044e+00 1.268900606808451292e-01
1.310000000000000053e+00 6.383139071447198332e-02
1.320000000000000062e+00 5.502925661281243830e-06
1.330000000000000071e+00 -6.197047260882825037e-02
1.340000000000000080e+00 -1.188616913710566075e-01
1.350000000000000089e+00 -1.691153538488989194e-01
1.360000000000000098e+00 -2.097156349580665269e-01
1.370000000000000107e+00 -2.398328724897036135e-01
1.380000000000000115e+00 -2.577003317634309343e-01
1.390000000000000124e+00 -2.629034304121687926e-01
1.400000000000000133e+00 -2.555096202817351281e-01
1.409999999999999920e+00 -2.353953425635919028e-01
1.419999999999999929e+00 -2.044569147314576896e-01
1.429999999999999938e+00 -1.629609862009869792e-01
1.439999999999999947e+00 -1.140503094295136632e-01
1.449999999999999956e+00 -5.866228509748465381e-02
1.459999999999999964e+00 -1.441393389027224511e-04
1.469999999999999973e+00 5.943721387603950745e-02
1.479999999999999982e+00 1.174869938487780874e-01
1.489999999999999991e+00 1.714684539396910679e-01
1.500000000000000000e+00 2.193466702055910655e-01
1.510000000000000009e+00 2.591697105300109771e-01
1.520000000000000018e+00 2.892112695144647416e-01
1.530000000000000027e+00 3.089207266702296284e-01
1.540000000000000036e+00 3.167414523324510456e-01
1.550000000000000044e+00 3.138832557044065608e-01
1.560000000000000053e+00 2.990082940155353031e-01
1.570000000000000062e+00 2.747675110509626983e-01
1.580000000000000071e+00 2.406875567960422291e-01
1.590000000000000080e+00 1.997602192873582372e-01
1.600000000000000089e+00 1.529298521567586389e-01
1.610000000000000098e+00 1.027699172982312059e-01
1.620000000000000107e+00 5.114678777030691459e-02
1.630000000000000115e+00 3.116118756960571667e-04
1.640000000000000124e+00 -4.786260126248938901e-02
1.650000000000000133e+00 -9.128104777388540425e-02
1.660000000000000142e+00 -1.289163849706532194e-01
1.669999999999999929e+00 -1.587132813124244868e-01
1.679999999999999938e+00 -1.810486045697931867e-01
1.689999999999999947e+00 -1.939301329618167424e-01
1.699999999999999956e+00 -1.989897132555458192e-01
1.709999999999999964e+00 -1.952917072527985132e-01
1.719999999999999973e+00 -1.846656302784247528e-01
1.729999999999999982e+00 -1.675485072622944493e-01
1.739999999999999991e+00 -1.457440683952756777e-01
1.750000000000000000e+00 -1.206638075309516001e-01
1.760000000000000009e+00 -9.410106461748890538e-02
1.770000000000000018e+00 -6.773679868430179662e-02
1.780000000000000027e+00 -4.345578385671412108e-02
1.790000000000000036e+00 -2.243569185831367080e-02
1.800000000000000044e+00 -6.740362988113238543e-03
1.810000000000000053e+00 3.474869893364026206e-03
1.820000000000000062e+00 6.279683319528485581e-03
1.830000000000000071e+00 2.361874049930292891e-03
1.840000000000000080e+00 -9.295023873630767902e-03
1.850000000000000089e+00 -2.773082960112892639e-02
1.860000000000000098e+00 -5.276966780259424034e-02
1.870000000000000107e+00 -8.330775173707377634e-02
1.880000000000000115e+00 -1.182015527586279813e-01
1.890000000000000124e+00 -1.561971883912735004e-01
1.900000000000000133e+00 -1.957206822324534523e-01
1.910000000000000142e+00 -2.352769343602155727e-01
1.919999999999999929e+00 -2.735446383287878369e-01
1.929999999999999938e+00 -3.086939796666381963e-01
1.939999999999999947e+00 -3.401243999506080029e-01
1.949999999999999956e+00 -3.661401530812755101e-01
1.959999999999999964e+00 -3.866736985662923010e-01
1.969999999999999973e+00 -4.007453681556955027e-01
1.979999999999999982e+00 -4.085925820642014594e-01
1.989999999999999991e+00 -4.102324791705778129e-01
2.000000000000000000e+00 -4.061002910833705903e-01
2.010000000000000231e+00 -3.971261524871890769e-01
2.020000000000000018e+00 -3.839412727003809200e-01
2.030000000000000249e+00 -3.679939047341048708e-01
2.040000000000000036e+00 -3.501784357188013619e-01
2.049999999999999822e+00 -3.318943724384952332e-01
2.060000000000000053e+00 -3.143363816881430961e-01
2.069999999999999840e+00 -2.984162830606692518e-01
2.080000000000000071e+00 -2.852720929753120305e-01
2.089999999999999858e+00 -2.753337459283368704e-01
2.100000000000000089e+00 -2.692017582486004312e-01
2.109999999999999876e+00 -2.669171444009879046e-01
2.120000000000000107e+00 -2.682812647347808666e-01
2.129999999999999893e+00 -2.729599351573190891e-01
2.140000000000000124e+00 -2.800305347184836591e-01
2.149999999999999911e+00 -2.887030825092420927e-01
2.160000000000000142e+00 -2.977287073065633116e-01
2.169999999999999929e+00 -3.057217338500973769e-01
2.180000000000000160e+00 -3.116072642171445750e-01
2.189999999999999947e+00 -3.136158966982009466e-01
2.200000000000000178e+00 -3.109931460804328807e-01
2.209999999999999964e+00 -3.021885904732502515e-01
2.220000000000000195e+00 -2.866682966772571284e-01
2.229999999999999982e+00 -2.636953741526319450e-01
2.240000000000000213e+00 -2.329092362685700468e-01
2.250000000000000000e+00 -1.947272746413847289e-01
2.260000000000000231e+00 -1.490278691082871920e-01
2.270000000000000018e+00 -9.734956087001439551e-02
2.280000000000000249e+00 -4.001605197943029074e-02
2.290000000000000036e+00 2.077811428004238542e-02
2.300000000000000266e+00 8.385740178707305759e-02
2.310000000000000053e+00 1.470836401410625105e-01
2.319999999999999840e+00 2.084600711784744265e-01
2.330000000000000071e+00 2.661393593787234058e-01
2.339999999999999858e+00 3.179945039656885131e-01
2.350000000000000089e+00 3.622862965562753668e-01
2.359999999999999876e+00 3.976076812668151717e-01
2.370000000000000107e+00 4.221684826823889902e-01
2.379999999999999893e+00 4.359541364292121024e-01
2.390000000000000124e+00 4.370880124807477451e-01
2.399999999999999911e+00 4.272545603886261922e-01
2.410000000000000142e+00 4.046439536732771014e-01
2.419999999999999929e+00 3.721733767222489830e-01
2.430000000000000160e+00 3.293509297269185954e-01
2.439999999999999947e+00 2.789675682613603214e-01
2.450000000000000178e+00 2.221095537575640266e-01
2.459999999999999964e+00 1.613078065331446653e-01
2.470000000000000195e+00 9.860146398261433742e-02
2.479999999999999982e+00 3.643060392611076337e-02
2.490000000000000213e+00 -2.312932330789076868e-02
2.500000000000000000e+00 -7.750193351074896597e-02
2.510000000000000231e+00 -1.255034346559254776e-01
2.520000000000000018e+00 -1.642533079380263938e-01
2.530000000000000249e+00 -1.940218635631664745e-01
2.540000000000000036e+00 -2.120437264490693530e-01
2.550000000000000266e+00 -2.196502054854910790e-01
2.560000000000000053e+00 -2.153344051734942255e-01
2.569999999999999840e+00 -2.005937050257798338e-01
2.580000000000000071e+00 -1.755687928888647054e-01
2.589999999999999858e+00 -1.417869024290790980e-01
2.600000000000000089e+00 -1.007560360244061648e-01
2.609999999999999876e+00 -5.408503152174412576e-02
2.620000000000000107e+00 -3.982471598209868374e-03
2.629999999999999893e+00 4.768506678237606489e-02
2.640000000000000124e+00 9.887925967967503560e-02
2.649999999999999911e+00 1.472774971105896558e-01
2.660000000000000142e+00 1.916799657450357630e-01
2.669999999999999929e+00 2.297362235831134636e-01
2.680000000000000160e+00 2.609798662211196829e-01
2.689999999999999947e+00 2.837940923386877423e-01
2.700000000000000178e+00 2.981158882091727857e-01
2.709999999999999964e+00 3.035585545924890938e-01
2.720000000000000195e+00 3.002874173869992669e-01
2.729999999999999982e+00 2.892133540481936493e-01
2.740000000000000213e+00 2.707098447418267440e-01
2.750000000000000000e+00 2.466434972256989211e-01
2.760000000000000231e+00 2.177077561726505905e-01
2.770000000000000018e+00 1.860646140039110830e-01
2.780000000000000249e+00 1.529522425366713345e-01
2.790000000000000036e+00 1.201287475037678548e-01
2.800000000000000266e+00 8.918146260978522533e-02
2.810000000000000053e+00 6.130807973223188767e-02
2.819999999999999840e+00 3.782676905548995605e-02
2.830000000000000071e+00 1.954587554250194342e-02
2.839999999999999858e+00 6.972896483760852686e-03
2.850000000000000089e+00 6.372361422231741105e-04
2.859999999999999876e+00 1.015326295569687204e-05
2.870000000000000107e+00 5.339569051583907891e-03
2.879999999999999893e+00 1.520324813386853685e-02
2.890000000000000124e+00 2.945000974807741867e-02
2.899999999999999911e+00 4.627952780111942166e-02
2.910000000000000142e+00 6.480885845660586120e-02
2.919999999999999929e+00 8.350205277745222088e-02
2.930000000000000160e+00 1.010207619729374673e-01
2.939999999999999947e+00 1.161031309019087271e-01
2.950000000000000178e+00 1.275590899801950229e-01
2.959999999999999964e+00 1.343102017127064673e-01
2.970000000000000195e+00 1.358558090330406753e-01
2.979999999999999982e+00 1.312525371932029561e-01
2.990000000000000213e+00 1.209894642696978384e-01
3.000000000000000000e+00 1.043116097493835687e-01
3.010000000000000231e+00 8.260499888344777220e-02
3.020000000000000018e+00 5.565414768696184955e-02
3.030000000000000249e+00 2.517897643159858548e-02
3.040000000000000036e+00 -8.139054652164752490e-03
3.050000000000000266e+00 -4.271756473322298880e-02
3.060000000000000053e+00 -7.726826807337593139e-02
3.070000000000000284e+00 -1.102954136976888461e-01
3.080000000000000071e+00 -1.405038048621918834e-01
3.089999999999999858e+00 -1.663828145182321416e-01
3.100000000000000089e+00 -1.872333653197514325e-01
3.109999999999999876e+00 -2.014579684089900513e-01
3.120000000000000107e+00 -2.093897825841755378e-01
3.129999999999999893e+00 -2.093708917907771416e-01
3.140000000000000124e+00 -2.026982803176310410e-01
3.149999999999999911e+00 -1.884446012354033528e-01
3.160000000000000142e+00 -1.680775474948149883e-01
3.169999999999999929e+00 -1.417633976754364977e-01
3.180000000000000160e+00 -1.109279389762288376e-01
3.189999999999999947e+00 -7.660694563896246201e-02
3.200000000000000178e+00 -4.021440829297417280e-02
3.209999999999999964e+00 -3.144833444261783267e-03
3.220000000000000195e+00 3.309355914222432415e-02
3.229999999999999982e+00 6.736117362856297586e-02
3.240000000000000213e+00 9.794680566519628484e-02
3.250000000000000000e+00 1.244510173429671795e-01
3.260000000000000231e+00 1.451139694401606395e-01
3.270000000000000018e+00 1.602498059025573018e-01
3.280000000000000249e+00 1.687104287730686880e-01
3.290000000000000036e+00 1.710563195842191575e-01
3.300000000000000266e+00 1.670913086179441343e-01
3.310000000000000053e+00 1.574924668587872889e-01
3.320000000000000284e+00 1.429623133611073738e-01
3.330000000000000071e+00 1.242777737612132533e-01
3.339999999999999858e+00 1.027077926240682892e-01
3.350000000000000089e+00 7.919878186917443663e-02
3.359999999999999876e+00 5.507845383423963515e-02
3.370000000000000107e+00 3.156083546330902545e-02
3.379999999999999893e+00 9.571845240119466677e-03
3.390000000000000124e+00 -9.580047109466745953e-03
3.399999999999999911e+00 -2.544798945053934960e-02
3.410000000000000142e+00 -3.707390664876915320e-02
3.419999999999999929e+00 -4.432170513119309402e-02
3.430000000000000160e+00 -4.691892814555076452e-02
3.439999999999999947e+00 -4.493984509818591683e-02
3.450000000000000178e+00 -3.886910416581361438e-02
3.459999999999999964e+00 -2.897728748550425573e-02
3.470000000000000195e+00 -1.631024851469239229e-02
3.479999999999999982e+00 -1.396942504595153831e-03
3.490000000000000213e+00 1.455630619398839108e-02
3.500000000000000000e+00 3.066263492495682752e-02
3.510000000000000231e+00 4.596055903621064365e-02
3.520000000000000018e+00 5.939135064170153466e-02
3.530000000000000249e+00 7.031384741503832192e-02
3.540000000000000036e+00 7.790978905157031065e-02
3.550000000000000266e+00 8.177205365808259963e-02
3.560000000000000053e+00 8.166258969319717398e-02
3.570000000000000284e+00 7.736427782439961320e-02
3.580000000000000071e+00 6.934019394670781766e-02
3.589999999999999858e+00 5.759521862253411117e-02
3.600000000000000089e+00 4.315879838948324942e-02
3.609999999999999876e+00 2.636493624036900102e-02
3.620000000000000107e+00 8.442588104871969618e-03
3.629999999999999893e+00 -9.771739314557676553e-03
3.640000000000000124e+00 -2.723751755232308239e-02
3.649999999999999911e+00 -4.285975059474210480e-02
3.660000000000000142e+00 -5.577128667667245049e-02
3.669999999999999929e+00 -6.507070599436040603e-02
3.680000000000000160e+00 -6.998867680986679829e-02
3.689999999999999947e+00 -7.021163062979700331e-02
3.700000000000000178e+00 -6.503146360869314913e-02
3.709999999999999964e+00 -5.493103479859271637e-02
3.720000000000000195e+00 -3.930734455834061086e-02
3.729999999999999982e+00 -1.935046214935069384e-02
3.740000000000000213e+00 5.163583780672384611e-03
3.750000000000000000e+00 3.279692480294364720e-02
3.760000000000000231e+00 6.307153981216992444e-02
3.770000000000000018e+00 9.471074808156558500e-02
3.780000000000000249e+00 1.267451696472814693e-01
3.790000000000000036e+00 1.580114941228553671e-01
3.800000000000000266e+00 1.875090644891930225e-01
3.810000000000000053e+00 2.141021474581577544e-01
3.820000000000000284e+00 2.372163641461852157e-01
3.830000000000000071e+00 2.556794131817287097e-01
3.839999999999999858e+00 2.696718831172990050e-01
3.850000000000000089e+00 2.779925981454775541e-01
3.859999999999999876e+00 2.815393224415135842e-01
