# [DEFAULT]
# # input and output specifications
# dataformat = QA
# outputtype = gr
# 
# # PDF calculation setup
# mode = xray
# wavelength = 
# composition = Cl4.0Cr1.0Na1.0
# bgscale = 1.0
# rpoly = 0.9
# qmaxinst = 28
# qmin = 0.0
# qmax = 22
# rmin = 0.0
# rmax = 30.0
# rstep = 0.01
# 
# # End of config --------------------------------------------------------------
# 
# #### start data
# #S 1
# #L r(Å)  G(Å$^$)
# 
0.000000000000000000e+00 0.000000000000000000e+00
1.000000000000000021e-02 -4.556745833791896703e-03
2.000000000000000042e-02 -9.141956183687315052e-03
2.999999999999999889e-02 -1.377813780710903345e-02
4.000000000000000083e-02 -1.845202890211930166e-02
5.000000000000000278e-02 -2.312497325254786115e-02
5.999999999999999778e-02 -2.771104279801216153e-02
7.000000000000000666e-02 -3.208743847121358489e-02
8.000000000000000167e-02 -3.606843171854608870e-02
8.999999999999999667e-02 -3.948416033979945672e-02
1.000000000000000056e-01 -4.202533246496761854e-02
1.100000000000000006e-01 -4.357227236104316281e-02
1.199999999999999956e-01 -4.368183995878977682e-02
1.300000000000000044e-01 -4.238337352416237519e-02
1.400000000000000133e-01 -3.921148749215854629e-02
1.499999999999999944e-01 -3.432501443096352967e-02
1.600000000000000033e-01 -2.745890250748554001e-02
1.700000000000000122e-01 -1.883469430084079924e-02
1.799999999999999933e-01 -8.510773005760845916e-03
1.900000000000000022e-01 3.199961181765799325e-03
2.000000000000000111e-01 1.592221629143745695e-02
2.099999999999999922e-01 2.919045620273807637e-02
2.200000000000000011e-01 4.244886531037265348e-02
2.300000000000000100e-01 5.499458636779793602e-02
2.399999999999999911e-01 6.634158148270699606e-02
2.500000000000000000e-01 7.547037081315877138e-02
2.600000000000000089e-01 8.215939738257464764e-02
2.700000000000000178e-01 8.537798943645609484e-02
2.800000000000000266e-01 8.504628656683643761e-02
2.899999999999999800e-01 8.048328032832317847e-02
2.999999999999999889e-01 7.171206278004660373e-02
3.099999999999999978e-01 5.865165541053294490e-02
3.200000000000000067e-01 4.144907472005923688e-02
3.300000000000000155e-01 2.069547589865244550e-02
3.400000000000000244e-01 -3.235544395590613572e-03
3.500000000000000333e-01 -2.924016844574613833e-02
3.599999999999999867e-01 -5.653762363268306085e-02
3.699999999999999956e-01 -8.387940523659609404e-02
3.800000000000000044e-01 -1.099163913951204247e-01
3.900000000000000133e-01 -1.335901373154603777e-01
4.000000000000000222e-01 -1.532722995591337123e-01
4.100000000000000311e-01 -1.680562368466685663e-01
4.199999999999999845e-01 -1.765915100239976721e-01
4.299999999999999933e-01 -1.780178592096377244e-01
4.400000000000000022e-01 -1.717987068682812479e-01
4.500000000000000111e-01 -1.570858456291704952e-01
4.600000000000000200e-01 -1.344926551299909789e-01
4.700000000000000289e-01 -1.032818078986522808e-01
4.799999999999999822e-01 -6.522826778407442294e-02
4.899999999999999911e-01 -1.996598754525833949e-02
5.000000000000000000e-01 3.006894458599605399e-02
5.100000000000000089e-01 8.407943919033854241e-02
5.200000000000000178e-01 1.398274852027164561e-01
5.300000000000000266e-01 1.955096146417247271e-01
5.400000000000000355e-01 2.489727102898214306e-01
5.500000000000000444e-01 2.981540005652898451e-01
5.600000000000000533e-01 3.407785434444800532e-01
5.700000000000000622e-01 3.754032799677706755e-01
5.799999999999999600e-01 3.994511021997409483e-01
5.899999999999999689e-01 4.128850018887388895e-01
5.999999999999999778e-01 4.127825227961320342e-01
6.099999999999999867e-01 4.007714810333202760e-01
6.199999999999999956e-01 3.744190515135469299e-01
6.300000000000000044e-01 3.361797825000248929e-01
6.400000000000000133e-01 2.853302722079916753e-01
6.500000000000000222e-01 2.242849906554978401e-01
6.600000000000000311e-01 1.541786793958972723e-01
6.700000000000000400e-01 7.743963470686195116e-02
6.800000000000000488e-01 -3.539952084837642843e-03
6.900000000000000577e-01 -8.607696761039616840e-02
7.000000000000000666e-01 -1.675121964468233582e-01
7.099999999999999645e-01 -2.445784996944911638e-01
7.199999999999999734e-01 -3.155053363938710165e-01
7.299999999999999822e-01 -3.761628006095791288e-01
7.399999999999999911e-01 -4.262631414187861290e-01
7.500000000000000000e-01 -4.620794475948002966e-01
7.600000000000000089e-01 -4.839487212556372597e-01
7.700000000000000178e-01 -4.897287248094752132e-01
7.800000000000000266e-01 -4.800111180752242301e-01
7.900000000000000355e-01 -4.547878552126394802e-01
8.000000000000000444e-01 -4.147948760880199592e-01
8.100000000000000533e-01 -3.620883900059299609e-01
8.200000000000000622e-01 -2.976951176017694767e-01
8.300000000000000711e-01 -2.250645395273208615e-01
8.399999999999999689e-01 -1.458692917298632097e-01
8.499999999999999778e-01 -6.382224484644023754e-02
8.599999999999999867e-01 1.830709361210132100e-02
8.699999999999999956e-01 9.758148015092663052e-02
8.800000000000000044e-01 1.706529607744868837e-01
8.900000000000000133e-01 2.353503321138657456e-01
9.000000000000000222e-01 2.889229065525652507e-01
9.100000000000000311e-01 3.296014511170791694e-01
9.200000000000000400e-01 3.562736810956515510e-01
9.300000000000000488e-01 3.673469089646176911e-01
9.400000000000000577e-01 3.638885344610380268e-01
9.500000000000000666e-01 3.444971473208088275e-01
9.599999999999999645e-01 3.123240270835308530e-01
9.699999999999999734e-01 2.664384522262420729e-01
9.799999999999999822e-01 2.110775156344100456e-01
9.899999999999999911e-01 1.470837194122382452e-01
1.000000000000000000e+00 7.811764587487410316e-02
1.010000000000000009e+00 6.548236006107745200e-03
1.020000000000000018e+00 -6.446393891905853601e-02
1.030000000000000027e+00 -1.321687510830850953e-01
1.040000000000000036e+00 -1.936374557109660499e-01
1.050000000000000044e+00 -2.469493506330184274e-01
1.060000000000000053e+00 -2.891677074578045126e-01
1.070000000000000062e+00 -3.201465391470468269e-01
1.080000000000000071e+00 -3.368711939076757256e-01
1.090000000000000080e+00 -3.411926719853667911e-01
1.100000000000000089e+00 -3.308399398115596801e-01
1.110000000000000098e+00 -3.086513685936977947e-01
1.120000000000000107e+00 -2.742694754848001293e-01
1.130000000000000115e+00 -2.304732709891429421e-01
1.140000000000000124e+00 -1.787637451298446090e-01
1.150000000000000133e+00 -1.218466794786694229e-01
1.159999999999999920e+00 -6.224610466958315630e-02
1.169999999999999929e+00 -2.769353623232693323e-03
1.179999999999999938e+00 5.416064326606506024e-02
1.189999999999999947e+00 1.054036490419738292e-01
1.199999999999999956e+00 1.497508355445344164e-01
1.209999999999999964e+00 1.835910025944383350e-01
1.219999999999999973e+00 2.073375969876091740e-01
1.229999999999999982e+00 2.181809423556344829e-01
1.239999999999999991e+00 2.171787564053775377e-01
1.250000000000000000e+00 2.032573341899052699e-01
1.260000000000000009e+00 1.777566614924005195e-01
1.270000000000000018e+00 1.414912647441862736e-01
1.280000000000000027e+00 9.601062475018293241e-02
1.290000000000000036e+00 4.356396723127303749e-02
1.300000000000000044e+00 -1.395282314916388745e-02
1.310000000000000053e+00 -7.376180205908601517e-02
1.320000000000000062e+00 -1.333658215159415350e-01
1.330000000000000071e+00 -1.904984489197253661e-01
1.340000000000000080e+00 -2.420576892291326776e-01
1.350000000000000089e+00 -2.867925928519254319e-01
1.360000000000000098e+00 -3.219002137127217056e-01
1.370000000000000107e+00 -3.467719891066925464e-01
1.380000000000000115e+00 -3.598500726755935464e-01
1.390000000000000124e+00 -3.608892249364270000e-01
1.400000000000000133e+00 -3.500763971021960685e-01
1.409999999999999920e+00 -3.274297051844389239e-01
1.419999999999999929e+00 -2.948260180611589343e-01
1.429999999999999938e+00 -2.526564322089613346e-01
1.439999999999999947e+00 -2.039008857732399760e-01
1.449999999999999956e+00 -1.495978452500601186e-01
1.459999999999999964e+00 -9.284768892315897748e-02
1.469999999999999973e+00 -3.571285524649667198e-02
1.479999999999999982e+00 1.942860812409279159e-02
1.489999999999999991e+00 7.014421862635392135e-02
1.500000000000000000e+00 1.145790925304937813e-01
1.510000000000000009e+00 1.509238297484294944e-01
1.520000000000000018e+00 1.776070428652540001e-01
1.530000000000000027e+00 1.941938215672883161e-01
1.540000000000000036e+00 1.992718109039616770e-01
1.550000000000000044e+00 1.940902136394944133e-01
1.560000000000000053e+00 1.774547981901813398e-01
1.570000000000000062e+00 1.519652238763023189e-01
1.580000000000000071e+00 1.172667514691856094e-01
1.590000000000000080e+00 7.625169190366101746e-02
1.600000000000000089e+00 2.991142523457072586e-02
1.610000000000000098e+00 -1.927425265262956711e-02
1.620000000000000107e+00 -6.946348053805570522e-02
1.630000000000000115e+00 -1.184824019587253086e-01
1.640000000000000124e+00 -1.645263391177174128e-01
1.650000000000000133e+00 -2.055595772380944541e-01
1.660000000000000142e+00 -2.406340357297888088e-01
1.669999999999999929e+00 -2.677378495173965423e-01
1.679999999999999938e+00 -2.873111569049842662e-01
1.689999999999999947e+00 -2.973927831574149638e-01
1.699999999999999956e+00 -2.996485973422358673e-01
1.709999999999999964e+00 -2.931621123849912913e-01
1.719999999999999973e+00 -2.797710384675012874e-01
1.729999999999999982e+00 -2.599173917829795677e-01
1.739999999999999991e+00 -2.354008558576576038e-01
1.750000000000000000e+00 -2.076285316062687070e-01
1.760000000000000009e+00 -1.783880889098647948e-01
1.770000000000000018e+00 -1.493564193421157704e-01
1.780000000000000027e+00 -1.224192840329841325e-01
1.790000000000000036e+00 -9.875759026368009785e-02
1.800000000000000044e+00 -8.044963142718732085e-02
1.810000000000000053e+00 -6.766064674910264587e-02
1.820000000000000062e+00 -6.235097055722946258e-02
1.830000000000000071e+00 -6.384430760922495118e-02
1.840000000000000080e+00 -7.319134576458162511e-02
1.850000000000000089e+00 -8.944102321219579710e-02
1.860000000000000098e+00 -1.124368845470037487e-01
1.870000000000000107e+00 -1.410732013501900250e-01
1.880000000000000115e+00 -1.741926596569169927e-01
1.890000000000000124e+00 -2.105137641336302379e-01
1.900000000000000133e+00 -2.484083039757442046e-01
1.910000000000000142e+00 -2.863047571050437723e-01
1.919999999999999929e+00 -3.228012825797200724e-01
1.929999999999999938e+00 -3.559108847753896798e-01
1.939999999999999947e+00 -3.849503392702269822e-01
1.949999999999999956e+00 -4.079993215063232315e-01
1.959999999999999964e+00 -4.248965214787864264e-01
1.969999999999999973e+00 -4.344250692465253527e-01
1.979999999999999982e+00 -4.367011793924926999e-01
1.989999999999999991e+00 -4.315661550155425186e-01
2.000000000000000000e+00 -4.192958672248265350e-01
2.010000000000000231e+00 -4.007816334006802372e-01
2.020000000000000018e+00 -3.764602225644482769e-01
2.030000000000000249e+00 -3.479328900127878765e-01
2.040000000000000036e+00 -3.158921514512098572e-01
2.049999999999999822e+00 -2.820747582940077991e-01
2.060000000000000053e+00 -2.475799796919541385e-01
2.069999999999999840e+00 -2.137310273118289694e-01
2.080000000000000071e+00 -1.818012568125887130e-01
2.089999999999999858e+00 -1.526239551865412603e-01
2.100000000000000089e+00 -1.271355987196968462e-01
2.109999999999999876e+00 -1.058132263495556447e-01
2.120000000000000107e+00 -8.886851213996749266e-02
2.129999999999999893e+00 -7.649421031787929925e-02
2.140000000000000124e+00 -6.808266082367295247e-02
2.149999999999999911e+00 -6.352011011405135632e-02
2.160000000000000142e+00 -6.159845713568613823e-02
2.169999999999999929e+00 -6.179357161805269782e-02
2.180000000000000160e+00 -6.275614439522114729e-02
2.189999999999999947e+00 -6.343990146161107568e-02
2.200000000000000178e+00 -6.276596697853926987e-02
2.209999999999999964e+00 -5.952691699037539891e-02
2.220000000000000195e+00 -5.288424379182862095e-02
2.229999999999999982e+00 -4.199497521784745224e-02
2.240000000000000213e+00 -2.620318529213042438e-02
2.250000000000000000e+00 -5.423266815399754165e-03
2.260000000000000231e+00 2.081380544481929024e-02
2.270000000000000018e+00 5.170863500358929138e-02
2.280000000000000249e+00 8.743763282669435311e-02
2.290000000000000036e+00 1.265455173532047950e-01
2.300000000000000266e+00 1.686009681447392106e-01
2.310000000000000053e+00 2.120249115616306412e-01
2.319999999999999840e+00 2.556663739298124516e-01
2.330000000000000071e+00 2.981052016005014682e-01
2.339999999999999858e+00 3.378958017007017145e-01
2.350000000000000089e+00 3.736861571017978112e-01
2.359999999999999876e+00 4.043506851667127977e-01
2.370000000000000107e+00 4.285019793854728531e-01
2.379999999999999893e+00 4.458710602684701207e-01
2.390000000000000124e+00 4.549949982892885769e-01
2.399999999999999911e+00 4.567667226105749934e-01
2.410000000000000142e+00 4.497265144186134989e-01
2.419999999999999929e+00 4.356862983217865137e-01
2.430000000000000160e+00 4.140623868874052094e-01
2.439999999999999947e+00 3.866568986845306255e-01
2.450000000000000178e+00 3.540041772853144142e-01
2.459999999999999964e+00 3.177573280862668326e-01
2.470000000000000195e+00 2.791932402433549565e-01
2.479999999999999982e+00 2.398908822709396593e-01
2.490000000000000213e+00 2.012662471892890936e-01
2.500000000000000000e+00 1.649482648531172824e-01
2.510000000000000231e+00 1.318585791620851544e-01
2.520000000000000018e+00 1.037691205669667854e-01
2.530000000000000249e+00 8.069606531274306493e-02
2.540000000000000036e+00 6.430255132662260342e-02
2.550000000000000266e+00 5.388115868392890501e-02
2.560000000000000053e+00 5.029571484146144744e-02
2.569999999999999840e+00 5.264048186250014361e-02
2.580000000000000071e+00 6.074218758251449107e-02
2.589999999999999858e+00 7.359331953844620855e-02
2.600000000000000089e+00 9.018288036984832556e-02
2.609999999999999876e+00 1.093789303540915886e-01
2.620000000000000107e+00 1.297975170718383142e-01
2.629999999999999893e+00 1.500858675002936238e-01
2.640000000000000124e+00 1.690823155166923109e-01
2.649999999999999911e+00 1.851158336555709105e-01
2.660000000000000142e+00 1.976620034531783032e-01
2.669999999999999929e+00 2.051409690433969868e-01
2.680000000000000160e+00 2.075017471115228607e-01
2.689999999999999947e+00 2.038002967362796680e-01
2.700000000000000178e+00 1.942513231363416082e-01
2.709999999999999964e+00 1.788322707313792503e-01
2.720000000000000195e+00 1.579445734068777307e-01
2.729999999999999982e+00 1.324460482561517771e-01
2.740000000000000213e+00 1.029556044644800716e-01
2.750000000000000000e+00 7.087447797200498167e-02
2.760000000000000231e+00 3.715433061451160063e-02
2.770000000000000018e+00 3.214344085073436632e-03
2.780000000000000249e+00 -2.956135856994460825e-02
2.790000000000000036e+00 -6.015359278254220343e-02
2.800000000000000266e+00 -8.708097930777330964e-02
2.810000000000000053e+00 -1.096835401678770833e-01
2.819999999999999840e+00 -1.269091345322700681e-01
2.830000000000000071e+00 -1.383174955567215147e-01
2.839999999999999858e+00 -1.436726007898292690e-01
2.850000000000000089e+00 -1.426808636860767421e-01
2.859999999999999876e+00 -1.360369017549817316e-01
2.870000000000000107e+00 -1.236213792482308421e-01
2.879999999999999893e+00 -1.068738454141865413e-01
2.890000000000000124e+00 -8.597084785332692602e-02
2.899999999999999911e+00 -6.261237127526529667e-02
2.910000000000000142e+00 -3.758557286989182289e-02
2.919999999999999929e+00 -1.227942224649905545e-02
2.930000000000000160e+00 1.214763773634117659e-02
2.939999999999999947e+00 3.459746102970398529e-02
2.950000000000000178e+00 5.405790261977411193e-02
2.959999999999999964e+00 6.961993841714393672e-02
2.970000000000000195e+00 8.086493618957364682e-02
2.979999999999999982e+00 8.701353811843100250e-02
2.990000000000000213e+00 8.847547089671826959e-02
3.000000000000000000e+00 8.462898433882795612e-02
3.010000000000000231e+00 7.661922023162538731e-02
3.020000000000000018e+00 6.425521962757443917e-02
3.030000000000000249e+00 4.894078430211268316e-02
3.040000000000000036e+00 3.119713249410998104e-02
3.050000000000000266e+00 1.228859568610564043e-02
3.060000000000000053e+00 -6.793077412689118785e-03
3.070000000000000284e+00 -2.489161796519993863e-02
3.080000000000000071e+00 -4.102417863162991646e-02
3.089999999999999858e+00 -5.407329801205032482e-02
3.100000000000000089e+00 -6.352885616090504783e-02
3.109999999999999876e+00 -6.826950468021550367e-02
3.120000000000000107e+00 -6.857151000752606529e-02
3.129999999999999893e+00 -6.334576956396711922e-02
3.140000000000000124e+00 -5.358383455105061172e-02
3.149999999999999911e+00 -3.878639572219205051e-02
3.160000000000000142e+00 -2.008325821808235045e-02
3.169999999999999929e+00 2.220781479432006045e-03
3.180000000000000160e+00 2.700625139816703602e-02
3.189999999999999947e+00 5.338864896683993139e-02
3.200000000000000178e+00 8.023323087683276178e-02
3.209999999999999964e+00 1.065042587563800602e-01
3.220000000000000195e+00 1.309778807807147061e-01
3.229999999999999982e+00 1.529479657745780319e-01
3.240000000000000213e+00 1.710398701977310643e-01
3.250000000000000000e+00 1.852161483909301187e-01
3.260000000000000231e+00 1.941316360182132883e-01
3.270000000000000018e+00 1.983120003554290078e-01
3.280000000000000249e+00 1.970025695806357224e-01
3.290000000000000036e+00 1.908776100323354152e-01
3.300000000000000266e+00 1.799910476891578570e-01
3.310000000000000053e+00 1.650893009323993466e-01
3.320000000000000284e+00 1.469094182477951316e-01
3.330000000000000071e+00 1.262833854753386276e-01
3.339999999999999858e+00 1.042914168317766038e-01
3.350000000000000089e+00 8.192377880699353021e-02
3.359999999999999876e+00 6.014894103848678064e-02
3.370000000000000107e+00 4.019379472490179628e-02
3.379999999999999893e+00 2.256969724541828953e-02
3.390000000000000124e+00 8.477451027217981772e-03
3.399999999999999911e+00 -1.961395219272952118e-03
3.410000000000000142e+00 -7.987383208800099416e-03
3.419999999999999929e+00 -9.704889515939053163e-03
3.430000000000000160e+00 -7.037048051848345670e-03
3.439999999999999947e+00 -2.447894413717208867e-04
3.450000000000000178e+00 1.007497335171134156e-02
3.459999999999999964e+00 2.349236168073914888e-02
3.470000000000000195e+00 3.897615068229859370e-02
3.479999999999999982e+00 5.585057581544240063e-02
3.490000000000000213e+00 7.304343398975625401e-02
3.500000000000000000e+00 8.955745124547434544e-02
3.510000000000000231e+00 1.046112670906901299e-01
3.520000000000000018e+00 1.171235043509288171e-01
3.530000000000000249e+00 1.265980689676839133e-01
3.540000000000000036e+00 1.322637014582605797e-01
3.550000000000000266e+00 1.338125024029207244e-01
3.560000000000000053e+00 1.310761662106287861e-01
3.570000000000000284e+00 1.238866144579105766e-01
3.580000000000000071e+00 1.127612653076897342e-01
3.589999999999999858e+00 9.769867682251659469e-02
3.600000000000000089e+00 7.975217913110714540e-02
3.609999999999999876e+00 5.918373661284932752e-02
3.620000000000000107e+00 3.721968955672973201e-02
3.629999999999999893e+00 1.457438857577798667e-02
3.640000000000000124e+00 -7.744711998078034759e-03
3.649999999999999911e+00 -2.878024701147348027e-02
3.660000000000000142e+00 -4.772762828161302567e-02
3.669999999999999929e+00 -6.379254686911065009e-02
3.680000000000000160e+00 -7.629593259064398891e-02
3.689999999999999947e+00 -8.495239797497040890e-02
3.700000000000000178e+00 -8.916676529244417504e-02
3.709999999999999964e+00 -8.933646499228224680e-02
3.720000000000000195e+00 -8.497897599498668852e-02
3.729999999999999982e+00 -7.708809501424249144e-02
3.740000000000000213e+00 -6.551190809787686697e-02
3.750000000000000000e+00 -5.144627135032378562e-02
3.760000000000000231e+00 -3.531676945378160737e-02
3.770000000000000018e+00 -1.817704531264137738e-02
3.780000000000000249e+00 -8.355756102883370867e-04
3.790000000000000036e+00 1.576424866735415264e-02
3.800000000000000266e+00 3.082268817702089880e-02
3.810000000000000053e+00 4.344598991108087477e-02
3.820000000000000284e+00 5.321688881116908021e-02
3.830000000000000071e+00 5.925343992118471681e-02
3.839999999999999858e+00 6.176933635410325474e-02
3.850000000000000089e+00 5.992037027786460690e-02
3.859999999999999876e+00 5.449510196418839991e-02
