# [DEFAULT]
# # input and output specifications
# dataformat = QA
# outputtype = gr
# 
# # PDF calculation setup
# mode = xray
# wavelength = 
# composition = Cl4.0Cr1.0Na1.0
# bgscale = 1.0
# rpoly = 0.9
# qmaxinst = 28
# qmin = 0.0
# qmax = 22
# rmin = 0.0
# rmax = 30.0
# rstep = 0.01
# 
# # End of config --------------------------------------------------------------
# 
# #### start data
# #S 1
# #L r(Å)  G(Å$^$)
# 
0.000000000000000000e+00 0.000000000000000000e+00
1.000000000000000021e-02 -2.293770099912078274e-03
2.000000000000000042e-02 -4.733304349239506048e-03
2.999999999999999889e-02 -7.484053888338419377e-03
4.000000000000000083e-02 -1.060678859717399322e-02
5.000000000000000278e-02 -1.417903234639177230e-02
5.999999999999999778e-02 -1.815657721415634210e-02
7.000000000000000666e-02 -2.245927371127509967e-02
8.000000000000000167e-02 -2.691753318890958285e-02
8.999999999999999667e-02 -3.131204741987739931e-02
1.000000000000000056e-01 -3.532195468979799913e-02
1.100000000000000006e-01 -3.870160950740467870e-02
1.199999999999999956e-01 -4.095754591498194930e-02
1.300000000000000044e-01 -4.196324274978357333e-02
1.400000000000000133e-01 -4.114636774741963626e-02
1.499999999999999944e-01 -3.853330391253858428e-02
1.600000000000000033e-01 -3.372009565257726854e-02
1.700000000000000122e-01 -2.682941637838111293e-02
1.799999999999999933e-01 -1.780577448830024043e-02
1.900000000000000022e-01 -6.888829485673406833e-03
2.000000000000000111e-01 5.584491629743146973e-03
2.099999999999999922e-01 1.919933809104793984e-02
2.200000000000000011e-01 3.333999470769161144e-02
2.300000000000000100e-01 4.732502752080454400e-02
2.399999999999999911e-01 6.052355681808965771e-02
2.500000000000000000e-01 7.189163277218338366e-02
2.600000000000000089e-01 8.102901764016424979e-02
2.700000000000000178e-01 8.680226959995580860e-02
2.800000000000000266e-01 8.898005612731160752e-02
2.899999999999999800e-01 8.673751887455131981e-02
2.999999999999999889e-01 7.997048921108337871e-02
3.099999999999999978e-01 6.848056118461420816e-02
3.200000000000000067e-01 5.230665663852217262e-02
3.300000000000000155e-01 3.200678434961765073e-02
3.400000000000000244e-01 7.867605209575259662e-03
3.500000000000000333e-01 -1.892745270227054466e-02
3.599999999999999867e-01 -4.764850237679245371e-02
3.699999999999999956e-01 -7.687445129760495099e-02
3.800000000000000044e-01 -1.052225811669762756e-01
3.900000000000000133e-01 -1.314363200278433064e-01
4.000000000000000222e-01 -1.537515252438835800e-01
4.100000000000000311e-01 -1.710738188601610699e-01
4.199999999999999845e-01 -1.818692445729342411e-01
4.299999999999999933e-01 -1.850943907612030981e-01
4.400000000000000022e-01 -1.800660275224868212e-01
4.500000000000000111e-01 -1.657518606584720833e-01
4.600000000000000200e-01 -1.427337045797235637e-01
4.700000000000000289e-01 -1.100957677993075062e-01
4.799999999999999822e-01 -6.974200301075497710e-02
4.899999999999999911e-01 -2.116158575176334267e-02
5.000000000000000000e-01 3.295147700004162628e-02
5.100000000000000089e-01 9.178562269143999974e-02
5.200000000000000178e-01 1.528293366336629377e-01
5.300000000000000266e-01 2.140914673444934968e-01
5.400000000000000355e-01 2.731256552195584497e-01
5.500000000000000444e-01 3.275869755976237307e-01
5.600000000000000533e-01 3.748638044677267134e-01
5.700000000000000622e-01 4.132572635401287053e-01
5.799999999999999600e-01 4.397817510821919740e-01
5.899999999999999689e-01 4.543030369050102824e-01
5.999999999999999778e-01 4.534024770844811703e-01
6.099999999999999867e-01 4.388434515666758684e-01
6.199999999999999956e-01 4.077240736363693108e-01
6.300000000000000044e-01 3.627761629700845258e-01
6.400000000000000133e-01 3.030426197069106542e-01
6.500000000000000222e-01 2.312289526020099295e-01
6.600000000000000311e-01 1.485411267952554126e-01
6.700000000000000400e-01 5.771420000424036523e-02
6.800000000000000488e-01 -3.853115769079940717e-02
6.900000000000000577e-01 -1.371531246096942269e-01
7.000000000000000666e-01 -2.350333886330078226e-01
7.099999999999999645e-01 -3.284331190452577931e-01
7.199999999999999734e-01 -4.151731125356797891e-01
7.299999999999999822e-01 -4.904717106009129357e-01
7.399999999999999911e-01 -5.538142111353735464e-01
7.500000000000000000e-01 -6.007887805463134612e-01
7.600000000000000089e-01 -6.316089130241080429e-01
7.700000000000000178e-01 -6.436187982865879675e-01
7.800000000000000266e-01 -6.373202728536260242e-01
7.900000000000000355e-01 -6.125139256766496398e-01
8.000000000000000444e-01 -5.698413986674215614e-01
8.100000000000000533e-01 -5.115557104020929113e-01
8.200000000000000622e-01 -4.385881015483837353e-01
8.300000000000000711e-01 -3.549386807105754382e-01
8.399999999999999689e-01 -2.622302715337127554e-01
8.499999999999999778e-01 -1.649265242687906197e-01
8.599999999999999867e-01 -6.594389370446684939e-02
8.699999999999999956e-01 3.107882292871875021e-02
8.800000000000000044e-01 1.223993040477762417e-01
8.900000000000000133e-01 2.052868877775626266e-01
9.000000000000000222e-01 2.765043862711488165e-01
9.100000000000000311e-01 3.338050389123876083e-01
9.200000000000000400e-01 3.757018759967939991e-01
9.300000000000000488e-01 4.001494125031095916e-01
9.400000000000000577e-01 4.081142559955088234e-01
9.500000000000000666e-01 3.977354020187081063e-01
9.599999999999999645e-01 3.724204493487717205e-01
9.699999999999999734e-01 3.307809030227273905e-01
9.799999999999999822e-01 2.775809582797326147e-01
9.899999999999999911e-01 2.134726077625200280e-01
1.000000000000000000e+00 1.426220166845860726e-01
1.010000000000000009e+00 6.753236491068709269e-02
1.020000000000000018e+00 -8.179275610225718654e-03
1.030000000000000027e+00 -8.141393704692315159e-02
1.040000000000000036e+00 -1.488152358981125745e-01
1.050000000000000044e+00 -2.080634628836184885e-01
1.060000000000000053e+00 -2.557861939955666242e-01
1.070000000000000062e+00 -2.915594465087004150e-01
1.080000000000000071e+00 -3.118937571063178926e-01
1.090000000000000080e+00 -3.185932566126766230e-01
1.100000000000000089e+00 -3.089401449383762377e-01
1.110000000000000098e+00 -2.859095774563372161e-01
1.120000000000000107e+00 -2.488959846709178081e-01
1.130000000000000115e+00 -2.008729005768651044e-01
1.140000000000000124e+00 -1.433583891867505899e-01
1.150000000000000133e+00 -7.928164480939377257e-02
1.159999999999999920e+00 -1.140955071195118298e-02
1.169999999999999929e+00 5.719393746515752386e-02
1.179999999999999938e+00 1.237456955240263667e-01
1.189999999999999947e+00 1.847884458899337334e-01
1.199999999999999956e+00 2.387824697767610971e-01
1.209999999999999964e+00 2.817064308990686605e-01
1.219999999999999973e+00 3.137823115445293465e-01
1.229999999999999982e+00 3.317858182118892385e-01
1.239999999999999991e+00 3.366934409933403094e-01
1.250000000000000000e+00 3.271459562302501678e-01
1.260000000000000009e+00 3.044619163079498869e-01
1.270000000000000018e+00 2.693867107309134146e-01
1.280000000000000027e+00 2.234809600713429656e-01
1.290000000000000036e+00 1.691571597675904093e-01
1.300000000000000044e+00 1.083548279945231174e-01
1.310000000000000053e+00 4.419266338548804435e-02
1.320000000000000062e+00 -2.073174379010467305e-02
1.330000000000000071e+00 -8.374847434172173755e-02
1.340000000000000080e+00 -1.415457623108331009e-01
1.350000000000000089e+00 -1.925348224114503681e-01
1.360000000000000098e+00 -2.336216453757986589e-01
1.370000000000000107e+00 -2.639511237671951505e-01
1.380000000000000115e+00 -2.817038890608548063e-01
1.390000000000000124e+00 -2.864453703452239930e-01
1.400000000000000133e+00 -2.782355098400314253e-01
1.409999999999999920e+00 -2.569352353589967608e-01
1.419999999999999929e+00 -2.244851342456206378e-01
1.429999999999999938e+00 -1.811458793434984615e-01
1.439999999999999947e+00 -1.301470545784014221e-01
1.449999999999999956e+00 -7.244066582071276295e-02
1.459999999999999964e+00 -1.147673390421317940e-02
1.469999999999999973e+00 5.062111517376108316e-02
1.479999999999999982e+00 1.111703899201590268e-01
1.489999999999999991e+00 1.675508502506369291e-01
1.500000000000000000e+00 2.176501494540315773e-01
1.510000000000000009e+00 2.594402153502666786e-01
1.520000000000000018e+00 2.911200884290122692e-01
1.530000000000000027e+00 3.121033948489168042e-01
1.540000000000000036e+00 3.207574447727338796e-01
1.550000000000000044e+00 3.183191835483273890e-01
1.560000000000000053e+00 3.033762621363902956e-01
1.570000000000000062e+00 2.786685853222891085e-01
1.580000000000000071e+00 2.436799666163914635e-01
1.590000000000000080e+00 2.015163493650254933e-01
1.600000000000000089e+00 1.531450564598647035e-01
1.610000000000000098e+00 1.012482704317742427e-01
1.620000000000000107e+00 4.777073882411272954e-02
1.630000000000000115e+00 -4.928358652103315661e-03
1.640000000000000124e+00 -5.487829503146966770e-02
1.650000000000000133e+00 -9.986775561236413412e-02
1.660000000000000142e+00 -1.387961474710030785e-01
1.669999999999999929e+00 -1.694749436021156241e-01
1.679999999999999938e+00 -1.922725497331203570e-01
1.689999999999999947e+00 -2.050454825938927694e-01
1.699999999999999956e+00 -2.094890235260439271e-01
1.709999999999999964e+00 -2.045635073067686993e-01
1.719999999999999973e+00 -1.921813999504576043e-01
1.729999999999999982e+00 -1.727621269801984938e-01
1.739999999999999991e+00 -1.482008875345602050e-01
1.750000000000000000e+00 -1.199762521462307552e-01
1.760000000000000009e+00 -8.998584341340409853e-02
1.770000000000000018e+00 -6.003272196782251380e-02
1.780000000000000027e+00 -3.213186172184027967e-02
1.790000000000000036e+00 -7.588019684287239386e-03
1.800000000000000044e+00 1.136223584688199686e-02
1.810000000000000053e+00 2.448326916782824283e-02
1.820000000000000062e+00 2.963891039922046666e-02
1.830000000000000071e+00 2.749469013792358793e-02
1.840000000000000080e+00 1.686302247375995322e-02
1.850000000000000089e+00 -1.294006344711990395e-03
1.860000000000000098e+00 -2.688049514670017709e-02
1.870000000000000107e+00 -5.877713149519239039e-02
1.880000000000000115e+00 -9.580389789014305546e-02
1.890000000000000124e+00 -1.366751011108889025e-01
1.900000000000000133e+00 -1.796725255800655230e-01
1.910000000000000142e+00 -2.232355000992284344e-01
1.919999999999999929e+00 -2.658343205496559447e-01
1.929999999999999938e+00 -3.055106729282186517e-01
1.939999999999999947e+00 -3.414565758739523393e-01
1.949999999999999956e+00 -3.717701595198616982e-01
1.959999999999999964e+00 -3.962177195170494826e-01
1.969999999999999973e+00 -4.135932060309042702e-01
1.979999999999999982e+00 -4.239892435656869574e-01
1.989999999999999991e+00 -4.272580495348163865e-01
2.000000000000000000e+00 -4.236920959418878918e-01
2.010000000000000231e+00 -4.141859103698909972e-01
2.020000000000000018e+00 -3.992231137444363642e-01
2.030000000000000249e+00 -3.803812402684706995e-01
2.040000000000000036e+00 -3.584152724806606849e-01
2.049999999999999822e+00 -3.349967601909289439e-01
2.060000000000000053e+00 -3.112647895506925333e-01
2.069999999999999840e+00 -2.884467052145820998e-01
2.080000000000000071e+00 -2.677846720992572704e-01
2.089999999999999858e+00 -2.499968232564448722e-01
2.100000000000000089e+00 -2.359100028677002248e-01
2.109999999999999876e+00 -2.258478874404504511e-01
2.120000000000000107e+00 -2.198648046604435025e-01
2.129999999999999893e+00 -2.179351557308119303e-01
2.140000000000000124e+00 -2.193074978515806017e-01
2.149999999999999911e+00 -2.235544778463844917e-01
2.160000000000000142e+00 -2.294198722316813932e-01
2.169999999999999929e+00 -2.359458481132897523e-01
2.180000000000000160e+00 -2.418634783678263456e-01
2.189999999999999947e+00 -2.457204403997580999e-01
2.200000000000000178e+00 -2.465357668509258193e-01
2.209999999999999964e+00 -2.428548943703461027e-01
2.220000000000000195e+00 -2.339211805321151361e-01
2.229999999999999982e+00 -2.188669344508823167e-01
2.240000000000000213e+00 -1.971031348529858063e-01
2.250000000000000000e+00 -1.687496074756740516e-01
2.260000000000000231e+00 -1.334156396341844020e-01
2.270000000000000018e+00 -9.228421713655668435e-02
2.280000000000000249e+00 -4.531890993809932489e-02
2.290000000000000036e+00 5.574232563882380170e-03
2.300000000000000266e+00 5.968681414443643973e-02
2.310000000000000053e+00 1.150479609864705627e-01
2.319999999999999840e+00 1.701137136492573143e-01
2.330000000000000071e+00 2.231491248037720532e-01
2.339999999999999858e+00 2.723289213857986724e-01
2.350000000000000089e+00 3.160163612462861815e-01
2.359999999999999876e+00 3.528620730060790800e-01
2.370000000000000107e+00 3.811889300293144212e-01
2.379999999999999893e+00 4.007631770000787408e-01
2.390000000000000124e+00 4.098194376940190176e-01
2.399999999999999911e+00 4.095822494061324148e-01
2.410000000000000142e+00 3.983054573672935028e-01
2.419999999999999929e+00 3.783364333392788548e-01
2.430000000000000160e+00 3.490381923446713164e-01
2.439999999999999947e+00 3.127160006702447426e-01
2.450000000000000178e+00 2.701236784874140318e-01
2.459999999999999964e+00 2.233715339549722234e-01
2.470000000000000195e+00 1.741159218694519062e-01
2.479999999999999982e+00 1.243869921040529763e-01
2.490000000000000213e+00 7.597840855806921312e-02
2.500000000000000000e+00 3.101501076655334421e-02
2.510000000000000231e+00 -9.371457507972457204e-03
2.520000000000000018e+00 -4.282716328458673061e-02
2.530000000000000249e+00 -6.939575990882865253e-02
2.540000000000000036e+00 -8.682191800082542099e-02
2.550000000000000266e+00 -9.606219341164248804e-02
2.560000000000000053e+00 -9.588251179830890869e-02
2.569999999999999840e+00 -8.744603980327760040e-02
2.580000000000000071e+00 -7.087220996234197545e-02
2.589999999999999858e+00 -4.740625158580402676e-02
2.600000000000000089e+00 -1.829545287304343293e-02
2.609999999999999876e+00 1.510152853951380464e-02
2.620000000000000107e+00 5.097213222533992366e-02
2.629999999999999893e+00 8.771047005977837541e-02
2.640000000000000124e+00 1.236788767093463803e-01
2.649999999999999911e+00 1.568760088512355100e-01
2.660000000000000142e+00 1.863960647125746384e-01
2.669999999999999929e+00 2.102555342285514772e-01
2.680000000000000160e+00 2.281626776973889881e-01
2.689999999999999947e+00 2.388128343881274485e-01
2.700000000000000178e+00 2.422598404909175884e-01
2.709999999999999964e+00 2.382816568302116855e-01
2.720000000000000195e+00 2.271488335110223578e-01
2.729999999999999982e+00 2.097432291109298796e-01
2.740000000000000213e+00 1.865563194822354998e-01
2.750000000000000000e+00 1.592352595400848281e-01
2.760000000000000231e+00 1.286063767613830899e-01
2.770000000000000018e+00 9.648273441481536317e-02
2.780000000000000249e+00 6.418971132028518378e-02
2.790000000000000036e+00 3.313772400782381833e-02
2.800000000000000266e+00 4.882396215876818810e-03
2.810000000000000053e+00 -1.963091041170282949e-02
2.819999999999999840e+00 -3.919850468791017534e-02
2.830000000000000071e+00 -5.318477880864544427e-02
2.839999999999999858e+00 -6.121138253470503193e-02
2.850000000000000089e+00 -6.286099359091981698e-02
2.859999999999999876e+00 -5.875479327616536102e-02
2.870000000000000107e+00 -4.871036266391056552e-02
2.879999999999999893e+00 -3.418154976909574400e-02
2.890000000000000124e+00 -1.534348507929618813e-02
2.899999999999999911e+00 6.025933898063181790e-03
2.910000000000000142e+00 2.906759179748828054e-02
2.919999999999999929e+00 5.229503556977867229e-02
2.930000000000000160e+00 7.443065511001530077e-02
2.939999999999999947e+00 9.427394787780120355e-02
2.950000000000000178e+00 1.107015809688319530e-01
2.959999999999999964e+00 1.227014897214933203e-01
2.970000000000000195e+00 1.298087966402658999e-01
2.979999999999999982e+00 1.311455185224358333e-01
2.990000000000000213e+00 1.271772093731907416e-01
3.000000000000000000e+00 1.172018322379514838e-01
3.010000000000000231e+00 1.025183929134284855e-01
3.020000000000000018e+00 8.291961642595661874e-02
3.030000000000000249e+00 6.000432820732163469e-02
3.040000000000000036e+00 3.438515079891701909e-02
3.050000000000000266e+00 7.514719116032341287e-03
3.060000000000000053e+00 -1.944805501469762041e-02
3.070000000000000284e+00 -4.515627964827196444e-02
3.080000000000000071e+00 -6.845646856736778418e-02
3.089999999999999858e+00 -8.802309659438628531e-02
3.100000000000000089e+00 -1.032502890090537667e-01
3.109999999999999876e+00 -1.127793792984375515e-01
3.120000000000000107e+00 -1.169286767730737114e-01
3.129999999999999893e+00 -1.143430705338594477e-01
3.140000000000000124e+00 -1.061897997245136033e-01
3.149999999999999911e+00 -9.179378233404428267e-02
3.160000000000000142e+00 -7.248104941946877100e-02
3.169999999999999929e+00 -4.853586116960662000e-02
3.180000000000000160e+00 -2.126318298881563207e-02
3.189999999999999947e+00 8.334720629126865510e-03
3.200000000000000178e+00 3.894461257998668713e-02
3.209999999999999964e+00 6.933454825199558691e-02
3.220000000000000195e+00 9.809329921798470853e-02
3.229999999999999982e+00 1.243207972717174925e-01
3.240000000000000213e+00 1.464269997635660736e-01
3.250000000000000000e+00 1.642568675911744158e-01
3.260000000000000231e+00 1.762290984875877764e-01
3.270000000000000018e+00 1.828456504521699388e-01
3.280000000000000249e+00 1.831720196485910612e-01
3.290000000000000036e+00 1.779041028593095763e-01
3.300000000000000266e+00 1.670284509551542840e-01
3.310000000000000053e+00 1.513367643891822267e-01
3.320000000000000284e+00 1.316225940677021033e-01
3.330000000000000071e+00 1.087800236652949198e-01
3.339999999999999858e+00 8.404168580313438330e-02
3.350000000000000089e+00 5.848335889729604914e-02
3.359999999999999876e+00 3.326418278026441189e-02
3.370000000000000107e+00 9.733920036559207123e-03
3.379999999999999893e+00 -1.143269519068394399e-02
3.390000000000000124e+00 -2.887722830226548132e-02
3.399999999999999911e+00 -4.237440811578212230e-02
3.410000000000000142e+00 -5.102389099555591778e-02
3.419999999999999929e+00 -5.486855329615935445e-02
3.430000000000000160e+00 -5.376032453516240567e-02
3.439999999999999947e+00 -4.792513154758467481e-02
3.450000000000000178e+00 -3.798334255449011682e-02
3.459999999999999964e+00 -2.434955514726141329e-02
3.470000000000000195e+00 -8.164622298679898374e-03
3.479999999999999982e+00 9.888579785461922705e-03
3.490000000000000213e+00 2.858239740071635837e-02
3.500000000000000000e+00 4.687330977773726537e-02
3.510000000000000231e+00 6.383785245447669288e-02
3.520000000000000018e+00 7.831060539249855290e-02
3.530000000000000249e+00 8.969775939423500766e-02
3.540000000000000036e+00 9.714860765256995434e-02
3.550000000000000266e+00 1.002977446912918791e-01
3.560000000000000053e+00 9.894493347455265986e-02
3.570000000000000284e+00 9.290397711076402165e-02
3.580000000000000071e+00 8.272656130763056392e-02
3.589999999999999858e+00 6.843994519793800135e-02
3.600000000000000089e+00 5.118495810601302043e-02
3.609999999999999876e+00 3.131541891121899374e-02
3.620000000000000107e+00 1.016232048955219638e-02
3.629999999999999893e+00 -1.140482550017759070e-02
3.640000000000000124e+00 -3.228015219085419996e-02
3.649999999999999911e+00 -5.133218226821944369e-02
3.660000000000000142e+00 -6.765809875796585660e-02
3.669999999999999929e+00 -8.033314620282924756e-02
3.680000000000000160e+00 -8.857249299452386870e-02
3.689999999999999947e+00 -9.205968516814828917e-02
3.700000000000000178e+00 -9.008508306384098441e-02
3.709999999999999964e+00 -8.314596650719827120e-02
3.720000000000000195e+00 -7.064854067611292532e-02
3.729999999999999982e+00 -5.380406110807620101e-02
3.740000000000000213e+00 -3.240642160434104718e-02
3.750000000000000000e+00 -7.909955197347263295e-03
3.760000000000000231e+00 1.918880426527137112e-02
3.770000000000000018e+00 4.760606107512561913e-02
3.780000000000000249e+00 7.636461268256203305e-02
3.790000000000000036e+00 1.043052463979558392e-01
3.800000000000000266e+00 1.304373462880805135e-01
3.810000000000000053e+00 1.536442048647343184e-01
3.820000000000000284e+00 1.733781173536547426e-01
3.830000000000000071e+00 1.885076124868215741e-01
3.839999999999999858e+00 1.992456814171636448e-01
3.850000000000000089e+00 2.044637744940784874e-01
3.859999999999999876e+00 2.050854929647539238e-01
