# [DEFAULT]
# # input and output specifications
# dataformat = QA
# outputtype = gr
# 
# # PDF calculation setup
# mode = xray
# wavelength = 
# composition = Cl4.0Cr1.0Na1.0
# bgscale = 1.0
# rpoly = 0.9
# qmaxinst = 28
# qmin = 0.0
# qmax = 22
# rmin = 0.0
# rmax = 30.0
# rstep = 0.01
# 
# # End of config --------------------------------------------------------------
# 
# #### start data
# #S 1
# #L r(Å)  G(Å$^$)
# 
0.000000000000000000e+00 0.000000000000000000e+00
1.000000000000000021e-02 -2.628973824070667334e-03
2.000000000000000042e-02 -5.389450682287874259e-03
2.999999999999999889e-02 -8.429331303967094527e-03
4.000000000000000083e-02 -1.179994699241030710e-02
5.000000000000000278e-02 -1.556376360541110275e-02
5.999999999999999778e-02 -1.967017177705859821e-02
7.000000000000000666e-02 -2.403201056719055789e-02
8.000000000000000167e-02 -2.847516209294132308e-02
8.999999999999999667e-02 -3.278424269152216408e-02
1.000000000000000056e-01 -3.663578004367341878e-02
1.100000000000000006e-01 -3.979842624345925756e-02
1.199999999999999956e-01 -4.177943895530920881e-02
1.300000000000000044e-01 -4.247248574237681012e-02
1.400000000000000133e-01 -4.131318660993364700e-02
1.499999999999999944e-01 -3.834708676914011516e-02
1.600000000000000033e-01 -3.318522959430116048e-02
1.700000000000000122e-01 -2.596632828950382749e-02
1.799999999999999933e-01 -1.665112620780229147e-02
1.900000000000000022e-01 -5.493576492431502707e-03
2.000000000000000111e-01 7.158868653073981701e-03
2.099999999999999922e-01 2.087773867223364360e-02
2.200000000000000011e-01 3.504777056127074408e-02
2.300000000000000100e-01 4.897467149498033190e-02
2.399999999999999911e-01 6.204103338537687862e-02
2.500000000000000000e-01 7.319257269606876948e-02
2.600000000000000089e-01 8.205151397570228933e-02
2.700000000000000178e-01 8.748598545261161707e-02
2.800000000000000266e-01 8.928623080048912752e-02
2.899999999999999800e-01 8.664092494730901706e-02
2.999999999999999889e-01 7.946688575349285244e-02
3.099999999999999978e-01 6.758473871489671658e-02
3.200000000000000067e-01 5.105527668503402616e-02
3.300000000000000155e-01 3.045254348615920870e-02
3.400000000000000244e-01 6.087480267608175351e-03
3.500000000000000333e-01 -2.085173066040268280e-02
3.599999999999999867e-01 -4.960814047636429719e-02
3.699999999999999956e-01 -7.877101962731872242e-02
3.800000000000000044e-01 -1.069352868343068641e-01
3.900000000000000133e-01 -1.328637646530493599e-01
4.000000000000000222e-01 -1.547859533746946126e-01
4.100000000000000311e-01 -1.716288280416373435e-01
4.199999999999999845e-01 -1.818701540024099117e-01
4.299999999999999933e-01 -1.844904809091635345e-01
4.400000000000000022e-01 -1.788309811575588271e-01
4.500000000000000111e-01 -1.638885790402958842e-01
4.600000000000000200e-01 -1.402720691988453838e-01
4.700000000000000289e-01 -1.071037945826166932e-01
4.799999999999999822e-01 -6.630461202278420396e-02
4.899999999999999911e-01 -1.741385774586111032e-02
5.000000000000000000e-01 3.687405451472736823e-02
5.100000000000000089e-01 9.570193222624054363e-02
5.200000000000000178e-01 1.565635045637296385e-01
5.300000000000000266e-01 2.174413553671315225e-01
5.400000000000000355e-01 2.758967880188393229e-01
5.500000000000000444e-01 3.295853826681459653e-01
5.600000000000000533e-01 3.759055157346317122e-01
5.700000000000000622e-01 4.131855831550775293e-01
5.799999999999999600e-01 4.384557281142238416e-01
5.899999999999999689e-01 4.516277256015072128e-01
5.999999999999999778e-01 4.493109566641341202e-01
6.099999999999999867e-01 4.333189104028429273e-01
6.199999999999999956e-01 4.007969417778526888e-01
6.300000000000000044e-01 3.545183145601225605e-01
6.400000000000000133e-01 2.935837731275869333e-01
6.500000000000000222e-01 2.207336966303297676e-01
6.600000000000000311e-01 1.372239969540224314e-01
6.700000000000000400e-01 4.582392620054154264e-02
6.800000000000000488e-01 -5.072182664413690811e-02
6.900000000000000577e-01 -1.493339926135752171e-01
7.000000000000000666e-01 -2.469083334314086942e-01
7.099999999999999645e-01 -3.396653367667801238e-01
7.199999999999999734e-01 -4.254810052345282534e-01
7.299999999999999822e-01 -4.995347939079309296e-01
7.399999999999999911e-01 -5.613929664218220150e-01
7.500000000000000000e-01 -6.066397209131548784e-01
7.600000000000000089e-01 -6.355603875150823701e-01
7.700000000000000178e-01 -6.455329105624760810e-01
7.800000000000000266e-01 -6.371234553420515034e-01
7.900000000000000355e-01 -6.101865622228248576e-01
8.000000000000000444e-01 -5.654268571748150007e-01
8.100000000000000533e-01 -5.051486912135743079e-01
8.200000000000000622e-01 -4.303520619076727227e-01
8.300000000000000711e-01 -3.450631099340278896e-01
8.399999999999999689e-01 -2.509844318428918197e-01
8.499999999999999778e-01 -1.525679898239836740e-01
8.599999999999999867e-01 -5.280708000422344034e-02
8.699999999999999956e-01 4.469509223703524436e-02
8.800000000000000044e-01 1.361525814604680473e-01
8.900000000000000133e-01 2.188720119836179978e-01
9.000000000000000222e-01 2.896165940166298691e-01
9.100000000000000311e-01 3.461756294498953279e-01
9.200000000000000400e-01 3.871009118206497623e-01
9.300000000000000488e-01 4.103839239140489314e-01
9.400000000000000577e-01 4.170526566039755578e-01
9.500000000000000666e-01 4.052897088271140147e-01
9.599999999999999645e-01 3.785646491371738587e-01
9.699999999999999734e-01 3.355460597872093054e-01
9.799999999999999822e-01 2.810418048296746130e-01
9.899999999999999911e-01 2.157667176048576607e-01
1.000000000000000000e+00 1.439116836381240105e-01
1.010000000000000009e+00 6.802879985867218982e-02
1.020000000000000018e+00 -8.250942464981349256e-03
1.030000000000000027e+00 -8.180971365234895876e-02
1.040000000000000036e+00 -1.492829043360366370e-01
1.050000000000000044e+00 -2.083681653331057593e-01
1.060000000000000053e+00 -2.556896985452744575e-01
1.070000000000000062e+00 -2.908722561014308594e-01
1.080000000000000071e+00 -3.104312180951496747e-01
1.090000000000000080e+00 -3.162349905102530556e-01
1.100000000000000089e+00 -3.055891966912462898e-01
1.110000000000000098e+00 -2.815270212634453650e-01
1.120000000000000107e+00 -2.434843703502890533e-01
1.130000000000000115e+00 -1.944796243242489231e-01
1.140000000000000124e+00 -1.360738830185420356e-01
1.150000000000000133e+00 -7.123274203144441818e-02
1.159999999999999920e+00 -2.749500198578190557e-03
1.169999999999999929e+00 6.627997058671239450e-02
1.179999999999999938e+00 1.330747057098584651e-01
1.189999999999999947e+00 1.941487837566667485e-01
1.199999999999999956e+00 2.479959899020031666e-01
1.209999999999999964e+00 2.905719924809120891e-01
1.219999999999999973e+00 3.221520115985785360e-01
1.229999999999999982e+00 3.395134946263557718e-01
1.239999999999999991e+00 3.436813032293760117e-01
1.250000000000000000e+00 3.333216114774890104e-01
1.260000000000000009e+00 3.097949423543343572e-01
1.270000000000000018e+00 2.738811556507689260e-01
1.280000000000000027e+00 2.271783337235231681e-01
1.290000000000000036e+00 1.721260220806309638e-01
1.300000000000000044e+00 1.106986673989963782e-01
1.310000000000000053e+00 4.602140789385074371e-02
1.320000000000000062e+00 -1.927574130035020900e-02
1.330000000000000071e+00 -8.254097806799796933e-02
1.340000000000000080e+00 -1.404418565811003938e-01
1.350000000000000089e+00 -1.914216609718398798e-01
1.360000000000000098e+00 -2.323894839182081284e-01
1.370000000000000107e+00 -2.625244257624741451e-01
1.380000000000000115e+00 -2.800312408940910935e-01
1.390000000000000124e+00 -2.845109203654609953e-01
1.400000000000000133e+00 -2.760559310166751379e-01
1.409999999999999920e+00 -2.545652844722603447e-01
1.419999999999999929e+00 -2.220045946119277025e-01
1.429999999999999938e+00 -1.786762288673161836e-01
1.439999999999999947e+00 -1.278130379872045586e-01
1.449999999999999956e+00 -7.041117496626718431e-02
1.459999999999999964e+00 -9.899505245924006269e-03
1.469999999999999973e+00 5.157261365510892870e-02
1.479999999999999982e+00 1.113520626046046597e-01
1.489999999999999991e+00 1.668220105509909124e-01
1.500000000000000000e+00 2.159043629500196071e-01
1.510000000000000009e+00 2.565999020527301444e-01
1.520000000000000018e+00 2.871479351088101484e-01
1.530000000000000027e+00 3.070031629686585939e-01
1.540000000000000036e+00 3.145825854304743485e-01
1.550000000000000044e+00 3.111575030823508503e-01
1.560000000000000053e+00 2.953781852529550056e-01
1.570000000000000062e+00 2.699958005796258553e-01
1.580000000000000071e+00 2.345612869603301565e-01
1.590000000000000080e+00 1.921700533449530457e-01
1.600000000000000089e+00 1.438350764625416500e-01
1.610000000000000098e+00 9.222029161516864804e-02
1.620000000000000107e+00 3.927942648990218055e-02
1.630000000000000115e+00 -1.265198442921143182e-02
1.640000000000000124e+00 -6.163192881873263973e-02
1.650000000000000133e+00 -1.054801755549454878e-01
1.660000000000000142e+00 -1.431514124919378850e-01
1.669999999999999929e+00 -1.725014740942012736e-01
1.679999999999999938e+00 -1.939595986286348772e-01
1.689999999999999947e+00 -2.054474370689310936e-01
1.699999999999999956e+00 -2.087059269902949155e-01
1.709999999999999964e+00 -2.027715427958105276e-01
1.719999999999999973e+00 -1.895853331591625945e-01
1.729999999999999982e+00 -1.696293369840694842e-01
1.739999999999999991e+00 -1.448173603181929781e-01
1.750000000000000000e+00 -1.166550047740436274e-01
1.760000000000000009e+00 -8.705236172592861754e-02
1.770000000000000018e+00 -5.779288047681428037e-02
1.780000000000000027e+00 -3.089659921731581493e-02
1.790000000000000036e+00 -7.605279874150680172e-03
1.800000000000000044e+00 9.853794673121545403e-03
1.810000000000000053e+00 2.133217076209759089e-02
1.820000000000000062e+00 2.473301788940623913e-02
1.830000000000000071e+00 2.080469128466371637e-02
1.840000000000000080e+00 8.428736475600481781e-03
1.850000000000000089e+00 -1.136383210758116526e-02
1.860000000000000098e+00 -3.840328209252696912e-02
1.870000000000000107e+00 -7.150848429503783854e-02
1.880000000000000115e+00 -1.094512637307537006e-01
1.890000000000000124e+00 -1.508856719708856764e-01
1.900000000000000133e+00 -1.940941616309712625e-01
1.910000000000000142e+00 -2.374566461258794114e-01
1.919999999999999929e+00 -2.795023287900514908e-01
1.929999999999999938e+00 -3.182206256744463113e-01
1.939999999999999947e+00 -3.529036195094410466e-01
1.949999999999999956e+00 -3.816453933368916807e-01
1.959999999999999964e+00 -4.043085515021738185e-01
1.969999999999999973e+00 -4.197361423956540438e-01
1.979999999999999982e+00 -4.281106957015468617e-01
1.989999999999999991e+00 -4.293617616450700059e-01
2.000000000000000000e+00 -4.238715451372950249e-01
2.010000000000000231e+00 -4.126057087900301679e-01
2.020000000000000018e+00 -3.961448819537577992e-01
2.030000000000000249e+00 -3.760976094824461380e-01
2.040000000000000036e+00 -3.533272248271248639e-01
2.049999999999999822e+00 -3.294778431237216920e-01
2.060000000000000053e+00 -3.057867673389258467e-01
2.069999999999999840e+00 -2.834149009298571609e-01
2.080000000000000071e+00 -2.636471449877516027e-01
2.089999999999999858e+00 -2.471293915044021072e-01
2.100000000000000089e+00 -2.346638486556318348e-01
2.109999999999999876e+00 -2.264977042223114134e-01
2.120000000000000107e+00 -2.226092365611079538e-01
2.129999999999999893e+00 -2.228861266185462597e-01
2.140000000000000124e+00 -2.264816859844526187e-01
2.149999999999999911e+00 -2.328611948981811619e-01
2.160000000000000142e+00 -2.406948081112851856e-01
2.169999999999999929e+00 -2.488867226517028353e-01
2.180000000000000160e+00 -2.561420177530140951e-01
2.189999999999999947e+00 -2.608759500834655909e-01
2.200000000000000178e+00 -2.621088242128305490e-01
2.209999999999999964e+00 -2.583026689966261835e-01
2.220000000000000195e+00 -2.487144188748919293e-01
2.229999999999999982e+00 -2.324663629591883773e-01
2.240000000000000213e+00 -2.089910556841158562e-01
2.250000000000000000e+00 -1.784735784195908004e-01
2.260000000000000231e+00 -1.405579550596745553e-01
2.270000000000000018e+00 -9.654700553813325148e-02
2.280000000000000249e+00 -4.646579875058863551e-02
2.290000000000000036e+00 7.644529187432716651e-03
2.300000000000000266e+00 6.496921750898865255e-02
2.310000000000000053e+00 1.234254752489266083e-01
2.319999999999999840e+00 1.813347867672249480e-01
2.330000000000000071e+00 2.368746413520506633e-01
2.339999999999999858e+00 2.881016917860351745e-01
2.350000000000000089e+00 3.333016271372600814e-01
2.359999999999999876e+00 3.710669589159160120e-01
2.370000000000000107e+00 3.996430843671616162e-01
2.379999999999999893e+00 4.188254274309877179e-01
2.390000000000000124e+00 4.267704911636550080e-01
2.399999999999999911e+00 4.248235610124688755e-01
2.410000000000000142e+00 4.111703374120286303e-01
2.419999999999999929e+00 3.883355112091906869e-01
2.430000000000000160e+00 3.556871953853105173e-01
2.439999999999999947e+00 3.156916016903927868e-01
2.450000000000000178e+00 2.691857787699392657e-01
2.459999999999999964e+00 2.184227873026509670e-01
2.470000000000000195e+00 1.651801629902743818e-01
2.479999999999999982e+00 1.116261045594537232e-01
2.490000000000000213e+00 5.966215359255752637e-02
2.500000000000000000e+00 1.156182711432097825e-02
2.510000000000000231e+00 -3.149676290099229226e-02
2.520000000000000018e+00 -6.698953028363757722e-02
2.530000000000000249e+00 -9.500037220560329787e-02
2.540000000000000036e+00 -1.131082076401577902e-01
2.550000000000000266e+00 -1.223649377684213058e-01
2.560000000000000053e+00 -1.214442041869121941e-01
2.569999999999999840e+00 -1.116032418947133370e-01
2.580000000000000071e+00 -9.296454892702227246e-02
2.589999999999999858e+00 -6.685994309979417793e-02
2.600000000000000089e+00 -3.461997934251363762e-02
2.609999999999999876e+00 2.312859636976544002e-03
2.620000000000000107e+00 4.199718628071889143e-02
2.629999999999999893e+00 8.273366953448468841e-02
2.640000000000000124e+00 1.227559897288189178e-01
2.649999999999999911e+00 1.599448108207663921e-01
2.660000000000000142e+00 1.933043300557232835e-01
2.669999999999999929e+00 2.207205411240258375e-01
2.680000000000000160e+00 2.418519447669850442e-01
2.689999999999999947e+00 2.552893369995822281e-01
2.700000000000000178e+00 2.610574428180436612e-01
2.709999999999999964e+00 2.588877472189838880e-01
2.720000000000000195e+00 2.490292014233602413e-01
2.729999999999999982e+00 2.323885048802750708e-01
2.740000000000000213e+00 2.094381500746046176e-01
2.750000000000000000e+00 1.819147698850418216e-01
2.760000000000000231e+00 1.506316381788592451e-01
2.770000000000000018e+00 1.175286518895623938e-01
2.780000000000000249e+00 8.394413766142561073e-02
2.790000000000000036e+00 5.140837345699745403e-02
2.800000000000000266e+00 2.152819503823875935e-02
2.810000000000000053e+00 -4.661864686879308578e-03
2.819999999999999840e+00 -2.589194218288495830e-02
2.830000000000000071e+00 -4.145972406288223749e-02
2.839999999999999858e+00 -5.093640503307396428e-02
2.850000000000000089e+00 -5.385265040624364480e-02
2.859999999999999876e+00 -5.081623805895817830e-02
2.870000000000000107e+00 -4.160362728428081136e-02
2.879999999999999893e+00 -2.769954513713008756e-02
2.890000000000000124e+00 -9.250806424046830942e-03
2.899999999999999911e+00 1.190238800867409429e-02
2.910000000000000142e+00 3.489495967835998247e-02
2.919999999999999929e+00 5.817684670370084493e-02
2.930000000000000160e+00 8.043074154303206380e-02
2.939999999999999947e+00 1.003962306569904511e-01
2.950000000000000178e+00 1.168964665352369287e-01
2.959999999999999964e+00 1.288606822678830532e-01
2.970000000000000195e+00 1.357815441247982313e-01
2.979999999999999982e+00 1.367202432698288728e-01
2.990000000000000213e+00 1.321326224408430616e-01
3.000000000000000000e+00 1.212529810795596047e-01
3.010000000000000231e+00 1.054122645078593157e-01
3.020000000000000018e+00 8.435151120040518258e-02
3.030000000000000249e+00 5.972707219850346971e-02
3.040000000000000036e+00 3.214036654333363857e-02
3.050000000000000266e+00 3.103618957405758667e-03
3.060000000000000053e+00 -2.619230127008564252e-02
3.070000000000000284e+00 -5.433833301771991836e-02
3.080000000000000071e+00 -8.012203751898303028e-02
3.089999999999999858e+00 -1.021476363133391324e-01
3.100000000000000089e+00 -1.197483641910956492e-01
3.109999999999999876e+00 -1.314792444324911491e-01
3.120000000000000107e+00 -1.376238537868245404e-01
3.129999999999999893e+00 -1.367176650000143101e-01
3.140000000000000124e+00 -1.299325724541733340e-01
3.149999999999999911e+00 -1.164923220759511019e-01
3.160000000000000142e+00 -9.774255882767339532e-02
3.169999999999999929e+00 -7.390674437487813886e-02
3.180000000000000160e+00 -4.631064049326048815e-02
3.189999999999999947e+00 -1.595034098975451481e-02
3.200000000000000178e+00 1.584238633507185912e-02
3.209999999999999964e+00 4.778813956126429230e-02
3.220000000000000195e+00 7.845631096429708795e-02
3.229999999999999982e+00 1.068601648921803648e-01
3.240000000000000213e+00 1.313805544539077830e-01
3.250000000000000000e+00 1.517624277953282252e-01
3.260000000000000231e+00 1.663705428358032701e-01
3.270000000000000018e+00 1.756216856619804978e-01
3.280000000000000249e+00 1.785045680878081242e-01
3.290000000000000036e+00 1.756499727313608483e-01
3.300000000000000266e+00 1.669694887330037680e-01
3.310000000000000053e+00 1.531983364309368878e-01
3.320000000000000284e+00 1.350838361944879384e-01
3.330000000000000071e+00 1.134628259868554617e-01
3.339999999999999858e+00 8.956933196935538966e-02
3.350000000000000089e+00 6.441653619160286892e-02
3.359999999999999876e+00 3.921993019466327168e-02
3.370000000000000107e+00 1.526313130811680560e-02
3.379999999999999893e+00 -6.683879318412437251e-03
3.390000000000000124e+00 -2.529263456567662147e-02
3.399999999999999911e+00 -4.024905662135162127e-02
3.410000000000000142e+00 -5.063363125371257017e-02
3.419999999999999929e+00 -5.641341399246287136e-02
3.430000000000000160e+00 -5.738660340673137211e-02
3.439999999999999947e+00 -5.371017758121009178e-02
3.450000000000000178e+00 -4.593981597355752816e-02
3.459999999999999964e+00 -3.441902511805591813e-02
3.470000000000000195e+00 -2.023836768618949775e-02
3.479999999999999982e+00 -3.998592617012706150e-03
3.490000000000000213e+00 1.308951125624781796e-02
3.500000000000000000e+00 3.007212909450778654e-02
3.510000000000000231e+00 4.601310202294237039e-02
3.520000000000000018e+00 5.981431734694524910e-02
3.530000000000000249e+00 7.086395987316967959e-02
3.540000000000000036e+00 7.833843387599950803e-02
3.550000000000000266e+00 8.185599022642535416e-02
3.560000000000000053e+00 8.120007628516431875e-02
3.570000000000000284e+00 7.617131150031321296e-02
3.580000000000000071e+00 6.726862337626451915e-02
3.589999999999999858e+00 5.450570154665097117e-02
3.600000000000000089e+00 3.894946564374503206e-02
3.609999999999999876e+00 2.093272383630988970e-02
3.620000000000000107e+00 1.712843530561774987e-03
3.629999999999999893e+00 -1.788077185626349083e-02
3.640000000000000124e+00 -3.679693323882866907e-02
3.649999999999999911e+00 -5.395355230468261432e-02
3.660000000000000142e+00 -6.848875177790614277e-02
3.669999999999999929e+00 -7.951775968790722460e-02
3.680000000000000160e+00 -8.629031762094589719e-02
3.689999999999999947e+00 -8.850552251105057999e-02
3.700000000000000178e+00 -8.548672086007784443e-02
3.709999999999999964e+00 -7.771460296615897989e-02
3.720000000000000195e+00 -6.462765059573331861e-02
3.729999999999999982e+00 -4.739155087216867512e-02
3.740000000000000213e+00 -2.582179353450579640e-02
3.750000000000000000e+00 -1.316599030969798018e-03
3.760000000000000231e+00 2.563298704001188560e-02
3.770000000000000018e+00 5.379165407351875483e-02
3.780000000000000249e+00 8.221058137789230558e-02
3.790000000000000036e+00 1.097732553651396825e-01
3.800000000000000266e+00 1.355258134333478248e-01
3.810000000000000053e+00 1.583923141757365149e-01
3.820000000000000284e+00 1.778543092148229532e-01
3.830000000000000071e+00 1.928229117980772844e-01
3.839999999999999858e+00 2.035194067460283363e-01
3.850000000000000089e+00 2.088612991946062203e-01
3.859999999999999876e+00 2.097565284518746187e-01
