# [DEFAULT]
# # input and output specifications
# dataformat = QA
# outputtype = gr
# 
# # PDF calculation setup
# mode = xray
# wavelength = 
# composition = Cl4.0Cr1.0Na1.0
# bgscale = 1.0
# rpoly = 0.9
# qmaxinst = 28
# qmin = 0.0
# qmax = 22
# rmin = 0.0
# rmax = 30.0
# rstep = 0.01
# 
# # End of config --------------------------------------------------------------
# 
# #### start data
# #S 1
# #L r(Å)  G(Å$^$)
# 
0.000000000000000000e+00 0.000000000000000000e+00
1.000000000000000021e-02 -3.002202383106573197e-03
2.000000000000000042e-02 -6.110208626105642811e-03
2.999999999999999889e-02 -9.440967018569905791e-03
4.000000000000000083e-02 -1.303052155802519527e-02
5.000000000000000278e-02 -1.691786876281762761e-02
5.999999999999999778e-02 -2.104608141322548628e-02
7.000000000000000666e-02 -2.532252580025541600e-02
8.000000000000000167e-02 -2.957497532697505802e-02
8.999999999999999667e-02 -3.360327052906904310e-02
1.000000000000000056e-01 -3.709490993781962981e-02
1.100000000000000006e-01 -3.984821227470795174e-02
1.199999999999999956e-01 -4.139267002347128688e-02
1.300000000000000044e-01 -4.165332416685546546e-02
1.400000000000000133e-01 -4.009948476561522868e-02
1.499999999999999944e-01 -3.679901319939146015e-02
1.600000000000000033e-01 -3.139677208140873726e-02
1.700000000000000122e-01 -2.404426778882500643e-02
1.799999999999999933e-01 -1.472149217115360093e-02
1.900000000000000022e-01 -3.686518301420598290e-03
2.000000000000000111e-01 8.717616059444974197e-03
2.099999999999999922e-01 2.206776697949448460e-02
2.200000000000000011e-01 3.577613175945275337e-02
2.300000000000000100e-01 4.916604127305669591e-02
2.399999999999999911e-01 6.165968615578233669e-02
2.500000000000000000e-01 7.223651969630386083e-02
2.600000000000000089e-01 8.055473808332308527e-02
2.700000000000000178e-01 8.552708620283713814e-02
2.800000000000000266e-01 8.696826506491474318e-02
2.899999999999999800e-01 8.410440938498521535e-02
2.999999999999999889e-01 7.686570169672497788e-02
3.099999999999999978e-01 6.508509825928142367e-02
3.200000000000000067e-01 4.882436894109191267e-02
3.300000000000000155e-01 2.863627037371005782e-02
3.400000000000000244e-01 4.815477549603868791e-03
3.500000000000000333e-01 -2.149915800908988595e-02
3.599999999999999867e-01 -4.959265364622429673e-02
3.699999999999999956e-01 -7.811290614567742430e-02
3.800000000000000044e-01 -1.057279791989517992e-01
3.900000000000000133e-01 -1.312505779697693831e-01
4.000000000000000222e-01 -1.529950117411408850e-01
4.100000000000000311e-01 -1.699290686440002029e-01
4.199999999999999845e-01 -1.805942340502139642e-01
4.299999999999999933e-01 -1.840036826514772350e-01
4.400000000000000022e-01 -1.795116043964387065e-01
4.500000000000000111e-01 -1.661348914160687973e-01
4.600000000000000200e-01 -1.444297508803153440e-01
4.700000000000000289e-01 -1.135123102320702293e-01
4.799999999999999822e-01 -7.519346922863209826e-02
4.899999999999999911e-01 -2.895643463442450563e-02
5.000000000000000000e-01 2.263972829670981082e-02
5.100000000000000089e-01 7.886722924729409889e-02
5.200000000000000178e-01 1.373511083450839054e-01
5.300000000000000266e-01 1.962462475871813439e-01
5.400000000000000355e-01 2.532530896167516365e-01
5.500000000000000444e-01 3.061818343237665552e-01
5.600000000000000533e-01 3.525922946307396000e-01
5.700000000000000622e-01 3.908844992648887740e-01
5.799999999999999600e-01 4.182807177990893743e-01
5.899999999999999689e-01 4.346287679326230613e-01
5.999999999999999778e-01 4.367547230330254826e-01
6.099999999999999867e-01 4.262678251975151045e-01
6.199999999999999956e-01 4.004721687633656657e-01
6.300000000000000044e-01 3.618808093073834220e-01
6.400000000000000133e-01 3.095957765321459831e-01
6.500000000000000222e-01 2.461094630774295355e-01
6.600000000000000311e-01 1.725243133906328996e-01
6.700000000000000400e-01 9.135736429539986769e-02
6.800000000000000488e-01 5.112125919913459993e-03
6.900000000000000577e-01 -8.342016056188408801e-02
7.000000000000000666e-01 -1.713665331508971712e-01
7.099999999999999645e-01 -2.553086336528649913e-01
7.199999999999999734e-01 -3.332354691755998188e-01
7.299999999999999822e-01 -4.007912926914198870e-01
7.399999999999999911e-01 -4.574972545281127956e-01
7.500000000000000000e-01 -4.993506661884238862e-01
7.600000000000000089e-01 -5.265573796187267286e-01
7.700000000000000178e-01 -5.367330815937607635e-01
7.800000000000000266e-01 -5.303685200132471911e-01
7.900000000000000355e-01 -5.073291432358354447e-01
8.000000000000000444e-01 -4.682591460812723372e-01
8.100000000000000533e-01 -4.152522774551662410e-01
8.200000000000000622e-01 -3.492482850379702852e-01
8.300000000000000711e-01 -2.739014543796247092e-01
8.399999999999999689e-01 -1.908177231865622325e-01
8.499999999999999778e-01 -1.040257405305184957e-01
8.599999999999999867e-01 -1.631821707197510241e-02
8.699999999999999956e-01 6.905421156828658868e-02
8.800000000000000044e-01 1.485952565142268922e-01
8.900000000000000133e-01 2.198760492521097398e-01
9.000000000000000222e-01 2.799354784498815363e-01
9.100000000000000311e-01 3.267811811500957453e-01
9.200000000000000400e-01 3.591213226355833843e-01
9.300000000000000488e-01 3.751518325564736633e-01
9.400000000000000577e-01 3.758708352172696610e-01
9.500000000000000666e-01 3.596639968458163472e-01
9.599999999999999645e-01 3.297698917436040489e-01
9.699999999999999734e-01 2.850473575256939895e-01
9.799999999999999822e-01 2.299475451537087156e-01
9.899999999999999911e-01 1.652221479526433112e-01
1.000000000000000000e+00 9.474781536227742940e-02
1.010000000000000009e+00 2.095149797527031538e-02
1.020000000000000018e+00 -5.280265919895681115e-02
1.030000000000000027e+00 -1.236048646536546669e-01
1.040000000000000036e+00 -1.883279504774370561e-01
1.050000000000000044e+00 -2.448657829038436706e-01
1.060000000000000053e+00 -2.900728372063566263e-01
1.070000000000000062e+00 -3.236740808221203469e-01
1.080000000000000071e+00 -3.424227478221346654e-01
1.090000000000000080e+00 -3.481516595190025098e-01
1.100000000000000089e+00 -3.383700199581917145e-01
1.110000000000000098e+00 -3.159867760629718747e-01
1.120000000000000107e+00 -2.805235546934479740e-01
1.130000000000000115e+00 -2.348585490446049584e-01
1.140000000000000124e+00 -1.805049650686913476e-01
1.150000000000000133e+00 -1.202842321678490173e-01
1.159999999999999920e+00 -5.684629585395468976e-02
1.169999999999999929e+00 6.865454071030041225e-03
1.179999999999999938e+00 6.824400256874016413e-02
1.189999999999999947e+00 1.239776734322441537e-01
1.199999999999999956e+00 1.726917623272588020e-01
1.209999999999999964e+00 2.105512408652101541e-01
1.219999999999999973e+00 2.378785543193749075e-01
1.229999999999999982e+00 2.516399708584683981e-01
1.239999999999999991e+00 2.528581655868903932e-01
1.250000000000000000e+00 2.403085843961668688e-01
1.260000000000000009e+00 2.153271124515032109e-01
1.270000000000000018e+00 1.786975531236929537e-01
1.280000000000000027e+00 1.319843805744475018e-01
1.290000000000000036e+00 7.753392006410617099e-02
1.300000000000000044e+00 1.727936475274619021e-02
1.310000000000000053e+00 -4.580866980107192038e-02
1.320000000000000062e+00 -1.091567230577126513e-01
1.330000000000000071e+00 -1.702754940865435773e-01
1.340000000000000080e+00 -2.259197634562063461e-01
1.350000000000000089e+00 -2.746541250709053084e-01
1.360000000000000098e+00 -3.134893464415456354e-01
1.370000000000000107e+00 -3.416798111375763392e-01
1.380000000000000115e+00 -3.575067175994165458e-01
1.390000000000000124e+00 -3.606157594051356829e-01
1.400000000000000133e+00 -3.511217719307253571e-01
1.409999999999999920e+00 -3.289488152988185310e-01
1.419999999999999929e+00 -2.960247053093169600e-01
1.429999999999999938e+00 -2.526615086849481329e-01
1.439999999999999947e+00 -2.020094755431619815e-01
1.449999999999999956e+00 -1.450579472330971731e-01
1.459999999999999964e+00 -8.514144292776776313e-02
1.469999999999999973e+00 -2.437285896948317501e-02
1.479999999999999982e+00 3.466447786378556301e-02
1.489999999999999991e+00 8.940229646066114033e-02
1.500000000000000000e+00 1.378079528573006585e-01
1.510000000000000009e+00 1.779161151636871885e-01
1.520000000000000018e+00 2.079907842057292511e-01
1.530000000000000027e+00 2.274898992347225979e-01
1.540000000000000036e+00 2.348364559975824606e-01
1.550000000000000044e+00 2.312742845485440402e-01
1.560000000000000053e+00 2.154405134907172170e-01
1.570000000000000062e+00 1.900430862181662350e-01
1.580000000000000071e+00 1.545990065355421217e-01
1.590000000000000080e+00 1.121649792504720022e-01
1.600000000000000089e+00 6.371122705963995492e-02
1.610000000000000098e+00 1.187586992715899091e-02
1.620000000000000107e+00 -4.141676291357587053e-02
1.630000000000000115e+00 -9.384179750607046788e-02
1.640000000000000124e+00 -1.434556452929109105e-01
1.650000000000000133e+00 -1.880694920620029353e-01
1.660000000000000142e+00 -2.266018069855685324e-01
1.669999999999999929e+00 -2.568728022186088644e-01
1.679999999999999938e+00 -2.792546395431367845e-01
1.689999999999999947e+00 -2.915953357316760086e-01
1.699999999999999956e+00 -2.955802698930421468e-01
1.709999999999999964e+00 -2.901434979067155084e-01
1.719999999999999973e+00 -2.771783258542955264e-01
1.729999999999999982e+00 -2.570675805075688936e-01
1.739999999999999991e+00 -2.316803936401161668e-01
1.750000000000000000e+00 -2.024625695424335792e-01
1.760000000000000009e+00 -1.712793481361011283e-01
1.770000000000000018e+00 -1.399205031771035834e-01
1.780000000000000027e+00 -1.103627454814273684e-01
1.790000000000000036e+00 -8.392827669439445470e-02
1.800000000000000044e+00 -6.281129400336858681e-02
1.810000000000000053e+00 -4.729463148118667748e-02
1.820000000000000062e+00 -3.948185648950940096e-02
1.830000000000000071e+00 -3.876334996287817553e-02
1.840000000000000080e+00 -4.632053654842650109e-02
1.850000000000000089e+00 -6.123513233280757778e-02
1.860000000000000098e+00 -8.342555770099935319e-02
1.870000000000000107e+00 -1.118006157616603241e-01
1.880000000000000115e+00 -1.451995342259478627e-01
1.890000000000000124e+00 -1.823450111248079986e-01
1.900000000000000133e+00 -2.215299931911061670e-01
1.910000000000000142e+00 -2.611758655412111385e-01
1.919999999999999929e+00 -2.997523102229248115e-01
1.929999999999999938e+00 -3.352464164361756427e-01
1.939999999999999947e+00 -3.668404248507863841e-01
1.949999999999999956e+00 -3.925501679368924024e-01
1.959999999999999964e+00 -4.121161099746123435e-01
1.969999999999999973e+00 -4.242427585641621590e-01
1.979999999999999982e+00 -4.289789512673266580e-01
1.989999999999999991e+00 -4.261091824909630232e-01
2.000000000000000000e+00 -4.158643063579251509e-01
2.010000000000000231e+00 -3.991249485260782159e-01
2.020000000000000018e+00 -3.763007617576969999e-01
2.030000000000000249e+00 -3.490335501694415421e-01
2.040000000000000036e+00 -3.180079651087415193e-01
2.049999999999999822e+00 -2.850361499271508170e-01
2.060000000000000053e+00 -2.512404818011098051e-01
2.069999999999999840e+00 -2.180225704620381011e-01
2.080000000000000071e+00 -1.867099378126063358e-01
2.089999999999999858e+00 -1.581999764980411283e-01
2.100000000000000089e+00 -1.334893957045590329e-01
2.109999999999999876e+00 -1.131063392834288917e-01
2.120000000000000107e+00 -9.729915277382066019e-02
2.129999999999999893e+00 -8.629980746525826862e-02
2.140000000000000124e+00 -7.949406376107560901e-02
2.149999999999999911e+00 -7.679269426255035114e-02
2.160000000000000142e+00 -7.693483603179311625e-02
2.169999999999999929e+00 -7.939775580296033752e-02
2.180000000000000160e+00 -8.275158255435029198e-02
2.189999999999999947e+00 -8.590780430474109775e-02
2.200000000000000178e+00 -8.770897424329296421e-02
2.209999999999999964e+00 -8.687254285840810553e-02
2.220000000000000195e+00 -8.248438311479217022e-02
2.229999999999999982e+00 -7.362528585881468468e-02
2.240000000000000213e+00 -5.956234419187673296e-02
2.250000000000000000e+00 -4.016711589179322583e-02
2.260000000000000231e+00 -1.488920919853110175e-02
2.270000000000000018e+00 1.545522121571507243e-02
2.280000000000000249e+00 5.112591803392033118e-02
2.290000000000000036e+00 9.058768243118718588e-02
2.300000000000000266e+00 1.334666251368290812e-01
2.310000000000000053e+00 1.780746638719199471e-01
2.319999999999999840e+00 2.232542521471879426e-01
2.330000000000000071e+00 2.674822265031935320e-01
2.339999999999999858e+00 3.092488180418147548e-01
2.350000000000000089e+00 3.471030763821952303e-01
2.359999999999999876e+00 3.798305100523668432e-01
2.370000000000000107e+00 4.059422854124050684e-01
2.379999999999999893e+00 4.250963442632598732e-01
2.390000000000000124e+00 4.357194524855327322e-01
2.399999999999999911e+00 4.386843465458120650e-01
2.410000000000000142e+00 4.324111754506828054e-01
2.419999999999999929e+00 4.187539029589935624e-01
2.430000000000000160e+00 3.970477085052301347e-01
2.439999999999999947e+00 3.691599067969396075e-01
2.450000000000000178e+00 3.356142566998049914e-01
2.459999999999999964e+00 2.981398837042559813e-01
2.470000000000000195e+00 2.580709683317031766e-01
2.479999999999999982e+00 2.170749128919794990e-01
2.490000000000000213e+00 1.766662212463370463e-01
2.500000000000000000e+00 1.385835621409840790e-01
2.510000000000000231e+00 1.038459192001144477e-01
2.520000000000000018e+00 7.436799868165319682e-02
2.530000000000000249e+00 5.022044568418031207e-02
2.540000000000000036e+00 3.323344355605366285e-02
2.550000000000000266e+00 2.270492576126067683e-02
2.560000000000000053e+00 1.963377170111700598e-02
2.569999999999999840e+00 2.310259513989566110e-02
2.580000000000000071e+00 3.299904578460397669e-02
2.589999999999999858e+00 4.829739896599016119e-02
2.600000000000000089e+00 6.795811586608273280e-02
2.609999999999999876e+00 9.082545200444383515e-02
2.620000000000000107e+00 1.154073942992547980e-01
2.629999999999999893e+00 1.403126257418997325e-01
2.640000000000000124e+00 1.642251028221020925e-01
2.649999999999999911e+00 1.854038306779655365e-01
2.660000000000000142e+00 2.031717792953729174e-01
2.669999999999999929e+00 2.158316968709589889e-01
2.680000000000000160e+00 2.232170231005212169e-01
2.689999999999999947e+00 2.242516553368383292e-01
2.700000000000000178e+00 2.190586618246957717e-01
2.709999999999999964e+00 2.075174151634668063e-01
2.720000000000000195e+00 1.899462178623121944e-01
2.729999999999999982e+00 1.671762453579066499e-01
2.740000000000000213e+00 1.397422875852617485e-01
2.750000000000000000e+00 1.091075162505227014e-01
2.760000000000000231e+00 7.613813298400380625e-02
2.770000000000000018e+00 4.239020966938289448e-02
2.780000000000000249e+00 9.191690773563231456e-03
2.790000000000000036e+00 -2.228183114182018948e-02
2.800000000000000266e+00 -5.053501790608617289e-02
2.810000000000000053e+00 -7.477958020705030573e-02
2.819999999999999840e+00 -9.389386828232637594e-02
2.830000000000000071e+00 -1.073330053618756080e-01
2.839999999999999858e+00 -1.147743197164412116e-01
2.850000000000000089e+00 -1.158346595550860669e-01
2.859999999999999876e+00 -1.111423662132402373e-01
2.870000000000000107e+00 -1.004957151781002422e-01
2.879999999999999893e+00 -8.531561053498618041e-02
2.890000000000000124e+00 -6.570037557091602809e-02
2.899999999999999911e+00 -4.338138683127228112e-02
2.910000000000000142e+00 -1.910038657206811902e-02
2.919999999999999929e+00 5.703810679775865068e-03
2.930000000000000160e+00 2.987030174393633108e-02
2.939999999999999947e+00 5.224596857580950104e-02
2.950000000000000178e+00 7.177740707973645495e-02
2.959999999999999964e+00 8.749802990979720085e-02
2.970000000000000195e+00 9.893159757413359789e-02
2.979999999999999982e+00 1.052366927004122349e-01
2.990000000000000213e+00 1.067760912736823303e-01
3.000000000000000000e+00 1.028587377813459935e-01
3.010000000000000231e+00 9.461427146551266987e-02
3.020000000000000018e+00 8.178297798344320857e-02
3.030000000000000249e+00 6.578337797299821377e-02
3.040000000000000036e+00 4.709521863848034617e-02
3.050000000000000266e+00 2.700889092874071348e-02
3.060000000000000053e+00 6.514284517752308434e-03
3.070000000000000284e+00 -1.320022008274630322e-02
3.080000000000000071e+00 -3.111856485738127148e-02
3.089999999999999858e+00 -4.608573558726954122e-02
3.100000000000000089e+00 -5.753927529345884140e-02
3.109999999999999876e+00 -6.431206252924272226e-02
3.120000000000000107e+00 -6.663110931689936178e-02
3.129999999999999893e+00 -6.334968536870383415e-02
3.140000000000000124e+00 -5.543072592479703770e-02
3.149999999999999911e+00 -4.231694279164430195e-02
3.160000000000000142e+00 -2.512826524691470775e-02
3.169999999999999929e+00 -4.130652574457079410e-03
3.180000000000000160e+00 1.955566464896844187e-02
3.189999999999999947e+00 4.505387258351671587e-02
3.200000000000000178e+00 7.122220972040427256e-02
3.209999999999999964e+00 9.700092750931751939e-02
3.220000000000000195e+00 1.211537351392553974e-01
3.229999999999999982e+00 1.429286471566782457e-01
3.240000000000000213e+00 1.609311388419200628e-01
3.250000000000000000e+00 1.750731479530044377e-01
3.260000000000000231e+00 1.839783974892500173e-01
3.270000000000000018e+00 1.881338235520195468e-01
3.280000000000000249e+00 1.867487556943421556e-01
3.290000000000000036e+00 1.804738813457315294e-01
3.300000000000000266e+00 1.693369079257553700e-01
3.310000000000000053e+00 1.540719414385430808e-01
3.320000000000000284e+00 1.354105392356691195e-01
3.330000000000000071e+00 1.141813891974682998e-01
3.339999999999999858e+00 9.148206811922481030e-02
3.350000000000000089e+00 6.830888325303213771e-02
3.359999999999999876e+00 4.566358054461825550e-02
3.370000000000000107e+00 2.479094936606991706e-02
3.379999999999999893e+00 6.238383270330026716e-03
3.390000000000000124e+00 -8.761922415512895038e-03
3.399999999999999911e+00 -2.006029669439666346e-02
3.410000000000000142e+00 -2.686296256393375798e-02
3.419999999999999929e+00 -2.925306785776227506e-02
3.430000000000000160e+00 -2.713072632453999988e-02
3.439999999999999947e+00 -2.074036301366369989e-02
3.450000000000000178e+00 -1.067706514417616354e-02
3.459999999999999964e+00 2.641948120878243912e-03
3.470000000000000195e+00 1.816371427757941179e-02
3.479999999999999982e+00 3.522009947916951433e-02
3.490000000000000213e+00 5.270048290452447604e-02
3.500000000000000000e+00 6.960414851198948316e-02
3.510000000000000231e+00 8.510988223793296281e-02
3.520000000000000018e+00 9.811823650955009413e-02
3.530000000000000249e+00 1.081025502796831017e-01
3.540000000000000036e+00 1.142686850123670050e-01
3.550000000000000266e+00 1.162872131924454350e-01
3.560000000000000053e+00 1.139750338726055606e-01
3.570000000000000284e+00 1.071516458942625982e-01
3.580000000000000071e+00 9.633606604549466157e-02
3.589999999999999858e+00 8.152548106513662907e-02
3.600000000000000089e+00 6.379171649530726573e-02
3.609999999999999876e+00 4.341088147635151218e-02
3.620000000000000107e+00 2.163732011250438236e-02
3.629999999999999893e+00 -7.813832025893169275e-04
3.640000000000000124e+00 -2.280836027586739811e-02
3.649999999999999911e+00 -4.344250615542892546e-02
3.660000000000000142e+00 -6.184819833670325562e-02
3.669999999999999929e+00 -7.719307432936592384e-02
3.680000000000000160e+00 -8.876373970984566264e-02
3.689999999999999947e+00 -9.625921964606781733e-02
3.700000000000000178e+00 -9.904629634304439045e-02
3.709999999999999964e+00 -9.754118684872051248e-02
3.720000000000000195e+00 -9.122250568629208800e-02
3.729999999999999982e+00 -8.113728086313463927e-02
3.740000000000000213e+00 -6.710911102906148840e-02
3.750000000000000000e+00 -5.040231340323605286e-02
3.760000000000000231e+00 -3.145434836695702729e-02
3.770000000000000018e+00 -1.138218882084124708e-02
3.780000000000000249e+00 8.962212724562988383e-03
3.790000000000000036e+00 2.857431296048012354e-02
3.800000000000000266e+00 4.659943465334361740e-02
3.810000000000000053e+00 6.207941501174103760e-02
3.820000000000000284e+00 7.455476261877813648e-02
3.830000000000000071e+00 8.307064328128424546e-02
3.839999999999999858e+00 8.783326440328811935e-02
3.850000000000000089e+00 8.791492709498090197e-02
3.859999999999999876e+00 8.413621428092049603e-02
