# [DEFAULT]
# # input and output specifications
# dataformat = QA
# outputtype = gr
# 
# # PDF calculation setup
# mode = xray
# wavelength = 
# composition = Cl4.0Cr1.0Na1.0
# bgscale = 1.0
# rpoly = 0.9
# qmaxinst = 28
# qmin = 0.0
# qmax = 22
# rmin = 0.0
# rmax = 30.0
# rstep = 0.01
# 
# # End of config --------------------------------------------------------------
# 
# #### start data
# #S 1
# #L r(Å)  G(Å$^$)
# 
0.000000000000000000e+00 0.000000000000000000e+00
1.000000000000000021e-02 -2.636480110454183200e-03
2.000000000000000042e-02 -5.407620423326732310e-03
2.999999999999999889e-02 -8.465024106828858072e-03
4.000000000000000083e-02 -1.186164249370233632e-02
5.000000000000000278e-02 -1.566226832401230659e-02
5.999999999999999778e-02 -1.981625882556975124e-02
7.000000000000000666e-02 -2.423598858317418947e-02
8.000000000000000167e-02 -2.874545767462307472e-02
8.999999999999999667e-02 -3.312599419961634317e-02
1.000000000000000056e-01 -3.704999373068348922e-02
1.100000000000000006e-01 -4.028151842442149327e-02
1.199999999999999956e-01 -4.232094887512934805e-02
1.300000000000000044e-01 -4.305838142226503518e-02
1.400000000000000133e-01 -4.192065525911257279e-02
1.499999999999999944e-01 -3.895179699484750679e-02
1.600000000000000033e-01 -3.375553737810052524e-02
1.700000000000000122e-01 -2.647049987428882339e-02
1.799999999999999933e-01 -1.705466151067829353e-02
1.900000000000000022e-01 -5.763468561612271335e-03
2.000000000000000111e-01 7.052387048848844479e-03
2.099999999999999922e-01 2.096061014636076483e-02
2.200000000000000011e-01 3.533745518179574191e-02
2.300000000000000100e-01 4.948105178052197156e-02
2.399999999999999911e-01 6.276342810211532619e-02
2.500000000000000000e-01 7.411715288639567079e-02
2.600000000000000089e-01 8.315556011955206606e-02
2.700000000000000178e-01 8.873023855203646115e-02
2.800000000000000266e-01 9.062455528334532884e-02
2.899999999999999800e-01 8.801260696740491329e-02
2.999999999999999889e-01 8.080553089152042734e-02
3.099999999999999978e-01 6.881683993292135593e-02
3.200000000000000067e-01 5.210263465639424635e-02
3.300000000000000155e-01 3.124094085879176516e-02
3.400000000000000244e-01 6.540069326568417191e-03
3.500000000000000333e-01 -2.079638065845468287e-02
3.599999999999999867e-01 -5.000930233292741334e-02
3.699999999999999956e-01 -7.966519152890791378e-02
3.800000000000000044e-01 -1.083466149983707549e-01
3.900000000000000133e-01 -1.347931881750691618e-01
4.000000000000000222e-01 -1.572117006649445814e-01
4.100000000000000311e-01 -1.745070038569100646e-01
4.199999999999999845e-01 -1.851309956725413208e-01
4.299999999999999933e-01 -1.880407497594298594e-01
4.400000000000000022e-01 -1.825583111632933242e-01
4.500000000000000111e-01 -1.676534832020676047e-01
4.600000000000000200e-01 -1.439319263759306911e-01
4.700000000000000289e-01 -1.104843603826741461e-01
4.799999999999999822e-01 -6.925066446948893728e-02
4.899999999999999911e-01 -1.973576771622739812e-02
5.000000000000000000e-01 3.532911745815690840e-02
5.100000000000000089e-01 9.510273255762104194e-02
5.200000000000000178e-01 1.570433581936009904e-01
5.300000000000000266e-01 2.191245188320227466e-01
5.400000000000000355e-01 2.788730993029625016e-01
5.500000000000000444e-01 3.339162885420051685e-01
5.600000000000000533e-01 3.816154615950858586e-01
5.700000000000000622e-01 4.202625491007708769e-01
5.799999999999999600e-01 4.468424872784325097e-01
5.899999999999999689e-01 4.612372401843524705e-01
5.999999999999999778e-01 4.599965994909220868e-01
6.099999999999999867e-01 4.449229011969288994e-01
6.199999999999999956e-01 4.130928512857549029e-01
6.300000000000000044e-01 3.672832540516614563e-01
6.400000000000000133e-01 3.065388484663859048e-01
6.500000000000000222e-01 2.336038799816441691e-01
6.600000000000000311e-01 1.497059976390601732e-01
6.700000000000000400e-01 5.761421071390238763e-02
6.800000000000000488e-01 -3.992064291762179029e-02
6.900000000000000577e-01 -1.398244804596981417e-01
7.000000000000000666e-01 -2.389530818250853728e-01
7.099999999999999645e-01 -3.335337787748156035e-01
7.199999999999999734e-01 -4.213767149018873837e-01
7.299999999999999822e-01 -4.976627353576908996e-01
7.399999999999999911e-01 -5.618840638418240996e-01
7.500000000000000000e-01 -6.096006313912106789e-01
7.600000000000000089e-01 -6.410378867715385010e-01
7.700000000000000178e-01 -6.535287542621777135e-01
7.800000000000000266e-01 -6.475872751633184876e-01
7.900000000000000355e-01 -6.230194324028605068e-01
8.000000000000000444e-01 -5.804768844939234285e-01
8.100000000000000533e-01 -5.222296969475953565e-01
8.200000000000000622e-01 -4.492158601977142562e-01
8.300000000000000711e-01 -3.654569122319523133e-01
8.399999999999999689e-01 -2.725784117386474414e-01
8.499999999999999778e-01 -1.750625009514744646e-01
8.599999999999999867e-01 -7.582477633250198079e-02
8.699999999999999956e-01 2.148638539816517118e-02
8.800000000000000044e-01 1.131335898247654848e-01
8.900000000000000133e-01 1.963869334928587396e-01
9.000000000000000222e-01 2.680188072675603328e-01
9.100000000000000311e-01 3.257924939809083154e-01
9.200000000000000400e-01 3.682321508533914489e-01
9.300000000000000488e-01 3.933111950797744116e-01
9.400000000000000577e-01 4.020021653747933854e-01
9.500000000000000666e-01 3.924712443754462821e-01
9.599999999999999645e-01 3.681188593617714666e-01
9.699999999999999734e-01 3.275900409413607939e-01
9.799999999999999822e-01 2.756274938963849674e-01
9.899999999999999911e-01 2.129046425651891228e-01
1.000000000000000000e+00 1.435640826363708267e-01
1.010000000000000009e+00 7.010873407888790210e-02
1.020000000000000018e+00 -3.869985763995401062e-03
1.030000000000000027e+00 -7.529408315246144401e-02
1.040000000000000036e+00 -1.408375898261018666e-01
1.050000000000000044e+00 -1.982141823937556557e-01
1.060000000000000053e+00 -2.440909121463478992e-01
1.070000000000000062e+00 -2.780755094533696736e-01
1.080000000000000071e+00 -2.967316082586276549e-01
1.090000000000000080e+00 -3.018794372286834893e-01
1.100000000000000089e+00 -2.908625974176536344e-01
1.110000000000000098e+00 -2.666560122483893625e-01
1.120000000000000107e+00 -2.287021826681910064e-01
1.130000000000000115e+00 -1.799687377462800553e-01
1.140000000000000124e+00 -1.219926768872475475e-01
1.150000000000000133e+00 -5.769407996793966820e-02
1.159999999999999920e+00 1.017577463620686698e-02
1.169999999999999929e+00 7.856624134198060549e-02
1.179999999999999938e+00 1.447392525694886078e-01
1.189999999999999947e+00 2.052594125439030637e-01
1.199999999999999956e+00 2.586465166980738695e-01
1.209999999999999964e+00 3.009159076803954447e-01
1.219999999999999973e+00 3.323437625430653020e-01
1.229999999999999982e+00 3.497573528267719500e-01
1.239999999999999991e+00 3.541706476696402928e-01
1.250000000000000000e+00 3.442726996580207643e-01
1.260000000000000009e+00 3.214064831350763041e-01
1.270000000000000018e+00 2.863416064868576916e-01
1.280000000000000027e+00 2.406519128929040519e-01
1.290000000000000036e+00 1.867379023118278525e-01
1.300000000000000044e+00 1.265385730340750914e-01
1.310000000000000053e+00 6.312546711822469847e-02
1.320000000000000062e+00 -9.258395072964595296e-04
1.330000000000000071e+00 -6.301207010964107735e-02
1.340000000000000080e+00 -1.198768622142470375e-01
1.350000000000000089e+00 -1.699964218384757697e-01
1.360000000000000098e+00 -2.103577817560950969e-01
1.370000000000000107e+00 -2.401654576565841748e-01
1.380000000000000115e+00 -2.576791612813354448e-01
1.390000000000000124e+00 -2.625238666038974267e-01
1.400000000000000133e+00 -2.548049338345161341e-01
1.409999999999999920e+00 -2.344461510397954918e-01
1.419999999999999929e+00 -2.033753675030993691e-01
1.429999999999999938e+00 -1.619169809487318867e-01
1.439999999999999947e+00 -1.132204105728138871e-01
1.449999999999999956e+00 -5.829145308704317130e-02
1.459999999999999964e+00 -4.539321464833456256e-04
1.469999999999999973e+00 5.817541002369945591e-02
1.479999999999999982e+00 1.150339998115963436e-01
1.489999999999999991e+00 1.675726048732299467e-01
1.500000000000000000e+00 2.137929483066288994e-01
1.510000000000000009e+00 2.517692302404602733e-01
1.520000000000000018e+00 2.798179177353040670e-01
1.530000000000000027e+00 2.974416093782681347e-01
1.540000000000000036e+00 3.031381893895835899e-01
1.550000000000000044e+00 2.981762922670475047e-01
1.560000000000000053e+00 2.812918525295156069e-01
1.570000000000000062e+00 2.551768612717931206e-01
1.580000000000000071e+00 2.194481540334861924e-01
1.590000000000000080e+00 1.771141287811446308e-01
1.600000000000000089e+00 1.291975472932494207e-01
1.610000000000000098e+00 7.827804959570010268e-02
1.620000000000000107e+00 2.626362216033536687e-02
1.630000000000000115e+00 -2.459261769706021228e-02
1.640000000000000124e+00 -7.242525305877697828e-02
1.650000000000000133e+00 -1.151402374735386730e-01
1.660000000000000142e+00 -1.517653435066705914e-01
1.669999999999999929e+00 -1.802526357525476852e-01
1.679999999999999938e+00 -2.010659637236595076e-01
1.689999999999999947e+00 -2.122351733359924553e-01
1.699999999999999956e+00 -2.154834015337469266e-01
1.709999999999999964e+00 -2.099255479081396925e-01
1.719999999999999973e+00 -1.974602703868107434e-01
1.729999999999999982e+00 -1.785871349768816396e-01
1.739999999999999991e+00 -1.551614771810480853e-01
1.750000000000000000e+00 -1.286419818667536574e-01
1.760000000000000009e+00 -1.008618223765139765e-01
1.770000000000000018e+00 -7.351312443993342216e-02
1.780000000000000027e+00 -4.851093777899469217e-02
1.790000000000000036e+00 -2.700026386859205596e-02
1.800000000000000044e+00 -1.106256279326723810e-02
1.810000000000000053e+00 -7.864808851084352124e-04
1.820000000000000062e+00 1.907681447180742786e-03
1.830000000000000071e+00 -2.217965171720407552e-03
1.840000000000000080e+00 -1.413498132928141596e-02
1.850000000000000089e+00 -3.281698685931410536e-02
1.860000000000000098e+00 -5.802699138096097109e-02
1.870000000000000107e+00 -8.860059359180781635e-02
1.880000000000000115e+00 -1.233451648372777265e-01
1.890000000000000124e+00 -1.609488280740433430e-01
1.900000000000000133e+00 -1.998251799431314535e-01
1.910000000000000142e+00 -2.384241386523313633e-01
1.919999999999999929e+00 -2.754620095262285129e-01
1.929999999999999938e+00 -3.090635235401556491e-01
1.939999999999999947e+00 -3.387054504309546799e-01
1.949999999999999956e+00 -3.626912025676357065e-01
1.959999999999999964e+00 -3.810347081418858362e-01
1.969999999999999973e+00 -3.928051976679786672e-01
1.979999999999999982e+00 -3.983228922768751734e-01
1.989999999999999991e+00 -3.976811298592173305e-01
2.000000000000000000e+00 -3.914044988062684860e-01
2.010000000000000231e+00 -3.804928960104910773e-01
2.020000000000000018e+00 -3.656801159063537976e-01
2.030000000000000249e+00 -3.484425753816012827e-01
2.040000000000000036e+00 -3.297939320958567788e-01
2.049999999999999822e+00 -3.111003677221342301e-01
2.060000000000000053e+00 -2.936678262301835041e-01
2.069999999999999840e+00 -2.783342332478914716e-01
2.080000000000000071e+00 -2.662892351822372383e-01
2.089999999999999858e+00 -2.578843952992206923e-01
2.100000000000000089e+00 -2.536973584626304179e-01
2.109999999999999876e+00 -2.536874110882165190e-01
2.120000000000000107e+00 -2.575743670561208010e-01
2.129999999999999893e+00 -2.649322364634320026e-01
2.140000000000000124e+00 -2.747323723790193184e-01
2.149999999999999911e+00 -2.860714975735212384e-01
2.160000000000000142e+00 -2.976147865947070259e-01
2.169999999999999929e+00 -3.078309265574831199e-01
2.180000000000000160e+00 -3.156092976609888301e-01
2.189999999999999947e+00 -3.190393867910372716e-01
2.200000000000000178e+00 -3.173629346807466667e-01
2.209999999999999964e+00 -3.089400972962646486e-01
2.220000000000000195e+00 -2.932495819692810812e-01
2.229999999999999982e+00 -2.695443396059849506e-01
2.240000000000000213e+00 -2.374885373454945492e-01
2.250000000000000000e+00 -1.975711242205282214e-01
2.260000000000000231e+00 -1.497134349687896937e-01
2.270000000000000018e+00 -9.558400944119309350e-02
2.280000000000000249e+00 -3.558299667515442410e-02
2.290000000000000036e+00 2.795062958645582601e-02
2.300000000000000266e+00 9.371334592705594935e-02
2.310000000000000053e+00 1.594490934493759393e-01
2.319999999999999840e+00 2.230048677597736839e-01
2.330000000000000071e+00 2.824410943589852896e-01
2.339999999999999858e+00 3.354984053720070913e-01
2.350000000000000089e+00 3.803560263948225217e-01
2.359999999999999876e+00 4.155474547480840219e-01
2.370000000000000107e+00 4.392023200733802257e-01
2.379999999999999893e+00 4.513490186731087817e-01
2.390000000000000124e+00 4.500338800729718480e-01
2.399999999999999911e+00 4.370884650479984201e-01
2.410000000000000142e+00 4.106443217285055680e-01
2.419999999999999929e+00 3.738274314840984713e-01
2.430000000000000160e+00 3.261753145104448470e-01
2.439999999999999947e+00 2.706688742407540316e-01
2.450000000000000178e+00 2.085119194589124536e-01
2.459999999999999964e+00 1.424073702999327784e-01
2.470000000000000195e+00 7.454852561979138925e-02
2.479999999999999982e+00 7.547329931156093394e-03
2.490000000000000213e+00 -5.639362151871940565e-02
2.500000000000000000e+00 -1.145069000498120382e-01
2.510000000000000231e+00 -1.655673745292803312e-01
2.520000000000000018e+00 -2.064710413071852158e-01
2.530000000000000249e+00 -2.375607401508991190e-01
2.540000000000000036e+00 -2.558521096234436798e-01
2.550000000000000266e+00 -2.628160241531598551e-01
2.560000000000000053e+00 -2.568238394996966711e-01
2.569999999999999840e+00 -2.395030987794408706e-01
2.580000000000000071e+00 -2.109975791428758685e-01
2.589999999999999858e+00 -1.729484561797094144e-01
2.600000000000000089e+00 -1.269712507589858541e-01
2.609999999999999876e+00 -7.477937345144385073e-02
2.620000000000000107e+00 -1.874936899791823652e-02
2.629999999999999893e+00 3.914048040401713058e-02
2.640000000000000124e+00 9.668054242767121220e-02
2.649999999999999911e+00 1.514093643556350122e-01
2.660000000000000142e+00 2.020017147432359716e-01
2.669999999999999929e+00 2.459494458923093818e-01
2.680000000000000160e+00 2.827128391419242992e-01
2.689999999999999947e+00 3.105429123605125685e-01
2.700000000000000178e+00 3.293295747680957120e-01
2.709999999999999964e+00 3.386191555126490949e-01
2.720000000000000195e+00 3.385366195165689929e-01
2.729999999999999982e+00 3.300093027293732328e-01
2.740000000000000213e+00 3.133665714527548163e-01
2.750000000000000000e+00 2.905709157946684273e-01
2.760000000000000231e+00 2.622664548140928309e-01
2.770000000000000018e+00 2.307622016117633901e-01
2.780000000000000249e+00 1.972651056845946271e-01
2.790000000000000036e+00 1.636759205484952795e-01
2.800000000000000266e+00 1.315957910761041405e-01
2.810000000000000053e+00 1.023221172553877845e-01
2.819999999999999840e+00 7.721532532085129130e-02
2.830000000000000071e+00 5.714662821876663468e-02
2.839999999999999858e+00 4.266744922261962031e-02
2.850000000000000089e+00 3.434016928482955949e-02
2.859999999999999876e+00 3.166467052900103635e-02
2.870000000000000107e+00 3.489680112287769226e-02
2.879999999999999893e+00 4.262376754016711233e-02
2.890000000000000124e+00 5.467904501232295766e-02
2.899999999999999911e+00 6.925854727458156945e-02
2.910000000000000142e+00 8.544798780534369753e-02
2.919999999999999929e+00 1.017000376785591048e-01
2.930000000000000160e+00 1.166422573443163663e-01
2.939999999999999947e+00 1.289986111672085656e-01
2.950000000000000178e+00 1.375580437386795252e-01
2.959999999999999964e+00 1.412291430204348774e-01
2.970000000000000195e+00 1.395163708999623831e-01
2.979999999999999982e+00 1.314698911187330843e-01
2.990000000000000213e+00 1.176143240112103860e-01
3.000000000000000000e+00 9.720339406000091942e-02
3.010000000000000231e+00 7.168061808697816228e-02
3.020000000000000018e+00 4.086842748147126447e-02
3.030000000000000249e+00 6.548919990871014847e-03
3.040000000000000036e+00 -3.052799628305226387e-02
3.050000000000000266e+00 -6.871858689084710259e-02
3.060000000000000053e+00 -1.066556124047797760e-01
3.070000000000000284e+00 -1.427760324859315144e-01
3.080000000000000071e+00 -1.757239754958745681e-01
3.089999999999999858e+00 -2.039082485782424681e-01
3.100000000000000089e+00 -2.266149182435781284e-01
3.109999999999999876e+00 -2.421481327135288908e-01
3.120000000000000107e+00 -2.508912336101377094e-01
3.129999999999999893e+00 -2.510713981572260667e-01
3.140000000000000124e+00 -2.440901998898537817e-01
3.149999999999999911e+00 -2.289457712354240893e-01
3.160000000000000142e+00 -2.072072730578349564e-01
3.169999999999999929e+00 -1.790339718533004443e-01
3.180000000000000160e+00 -1.459381979947251828e-01
3.189999999999999947e+00 -1.090066311974170893e-01
3.200000000000000178e+00 -6.972899816780167570e-02
3.209999999999999964e+00 -2.958352935767889075e-02
3.220000000000000195e+00 9.847789954076317104e-03
3.229999999999999982e+00 4.734047067187956148e-02
3.240000000000000213e+00 8.110127815665305051e-02
3.250000000000000000e+00 1.106735488762420616e-01
3.260000000000000231e+00 1.342056162887106663e-01
3.270000000000000018e+00 1.519903055285788951e-01
3.280000000000000249e+00 1.628034710619717385e-01
3.290000000000000036e+00 1.672017731308464705e-01
3.300000000000000266e+00 1.649505722357582638e-01
3.310000000000000053e+00 1.567295071520639904e-01
3.320000000000000284e+00 1.432478417129726678e-01
3.330000000000000071e+00 1.252857267917067696e-01
3.339999999999999858e+00 1.041587541143370044e-01
3.350000000000000089e+00 8.081657183911554465e-02
3.359999999999999876e+00 5.665819703429618437e-02
3.370000000000000107e+00 3.290359544567056371e-02
3.379999999999999893e+00 1.055164823214044256e-02
3.390000000000000124e+00 -9.068389318100968793e-03
3.399999999999999911e+00 -2.545883686590012102e-02
3.410000000000000142e+00 -3.763347705480433320e-02
3.419999999999999929e+00 -4.542553389469897868e-02
3.430000000000000160e+00 -4.854167353960132242e-02
3.439999999999999947e+00 -4.704052317242930076e-02
3.450000000000000178e+00 -4.140158304119307547e-02
3.459999999999999964e+00 -3.189141615578723610e-02
3.470000000000000195e+00 -1.956634316663577108e-02
3.479999999999999982e+00 -4.961528903080487767e-03
3.490000000000000213e+00 1.069807390279062589e-02
3.500000000000000000e+00 2.650948254589824762e-02
3.510000000000000231e+00 4.149420365939293642e-02
3.520000000000000018e+00 5.457333417664059216e-02
3.530000000000000249e+00 6.509457905794453769e-02
3.540000000000000036e+00 7.222574406705242755e-02
3.550000000000000266e+00 7.555546908018083430e-02
3.560000000000000053e+00 7.484614611024616171e-02
3.570000000000000284e+00 6.988505013508940211e-02
3.580000000000000071e+00 6.115185762301208333e-02
3.589999999999999858e+00 4.866800176838748104e-02
3.600000000000000089e+00 3.348959788259674858e-02
3.609999999999999876e+00 1.598462207765576418e-02
3.620000000000000107e+00 -2.591520292674820512e-03
3.629999999999999893e+00 -2.135356990949732053e-02
3.640000000000000124e+00 -3.923819739884298885e-02
3.649999999999999911e+00 -5.510106936062880711e-02
3.660000000000000142e+00 -6.805274471529773606e-02
3.669999999999999929e+00 -7.715885878278558319e-02
3.680000000000000160e+00 -8.162591705453596524e-02
3.689999999999999947e+00 -8.113742690124432777e-02
3.700000000000000178e+00 -7.495916959792824075e-02
3.709999999999999964e+00 -6.360732157121121166e-02
3.720000000000000195e+00 -4.645451339366465926e-02
3.729999999999999982e+00 -2.475436036710168541e-02
3.740000000000000213e+00 1.725151773927202994e-03
3.750000000000000000e+00 3.147418618812545393e-02
3.760000000000000231e+00 6.399002295242432747e-02
3.770000000000000018e+00 9.793334376739558367e-02
3.780000000000000249e+00 1.322865677359514880e-01
3.790000000000000036e+00 1.658286103410752943e-01
3.800000000000000266e+00 1.975082216606406926e-01
3.810000000000000053e+00 2.261306608894182446e-01
3.820000000000000284e+00 2.510903143365698642e-01
3.830000000000000071e+00 2.711494729994315955e-01
3.839999999999999858e+00 2.864940023327744445e-01
3.850000000000000089e+00 2.958489961696993964e-01
3.859999999999999876e+00 3.001536414391840490e-01
