# [DEFAULT]
# # input and output specifications
# dataformat = QA
# outputtype = gr
# 
# # PDF calculation setup
# mode = xray
# wavelength = 
# composition = Cl4.0Cr1.0Na1.0
# bgscale = 1.0
# rpoly = 0.9
# qmaxinst = 28
# qmin = 0.0
# qmax = 22
# rmin = 0.0
# rmax = 30.0
# rstep = 0.01
# 
# # End of config --------------------------------------------------------------
# 
# #### start data
# #S 1
# #L r(Å)  G(Å$^$)
# 
0.000000000000000000e+00 0.000000000000000000e+00
1.000000000000000021e-02 -4.859199725677008745e-03
2.000000000000000042e-02 -9.723172924629893896e-03
2.999999999999999889e-02 -1.458589124532054353e-02
4.000000000000000083e-02 -1.942000243881004257e-02
5.000000000000000278e-02 -2.416523546779130241e-02
5.999999999999999778e-02 -2.872990794027729597e-02
7.000000000000000666e-02 -3.298633011662499559e-02
8.000000000000000167e-02 -3.675085746631796130e-02
8.999999999999999667e-02 -3.986812226727284858e-02
1.000000000000000056e-01 -4.203996309018209754e-02
1.100000000000000006e-01 -4.317488397557891350e-02
1.199999999999999956e-01 -4.285258032573840276e-02
1.300000000000000044e-01 -4.113237764028677274e-02
1.400000000000000133e-01 -3.758396253375972940e-02
1.499999999999999944e-01 -3.238811888819810580e-02
1.600000000000000033e-01 -2.531588874727672481e-02
1.700000000000000122e-01 -1.660272934996896710e-02
1.799999999999999933e-01 -6.329119681585628453e-03
1.900000000000000022e-01 5.185413002674560054e-03
2.000000000000000111e-01 1.756782210680919720e-02
2.099999999999999922e-01 3.035452190506631939e-02
2.200000000000000011e-01 4.301760918135735107e-02
2.300000000000000100e-01 5.486893430901087360e-02
2.399999999999999911e-01 6.546681709751044076e-02
2.500000000000000000e-01 7.382568233225605958e-02
2.600000000000000089e-01 7.976901399128713543e-02
2.700000000000000178e-01 8.231854136652792808e-02
2.800000000000000266e-01 8.143097374211567818e-02
2.899999999999999800e-01 7.647866094650151991e-02
2.999999999999999889e-01 6.751511355421561944e-02
3.099999999999999978e-01 5.449174228391479025e-02
3.200000000000000067e-01 3.758107272106523539e-02
3.300000000000000155e-01 1.736952934325029091e-02
3.400000000000000244e-01 -5.751270323306886638e-03
3.500000000000000333e-01 -3.072383328179285195e-02
3.599999999999999867e-01 -5.676483039140978876e-02
3.699999999999999956e-01 -8.270138857639057484e-02
3.800000000000000044e-01 -1.072159045279151429e-01
3.900000000000000133e-01 -1.293294590627394047e-01
4.000000000000000222e-01 -1.474818976931606407e-01
4.100000000000000311e-01 -1.608411248062249777e-01
4.199999999999999845e-01 -1.681377377004528717e-01
4.299999999999999933e-01 -1.685868594396974784e-01
4.400000000000000022e-01 -1.617123029306666848e-01
4.500000000000000111e-01 -1.467474205549186284e-01
4.600000000000000200e-01 -1.243149258148132652e-01
4.700000000000000289e-01 -9.376572629671314774e-02
4.799999999999999822e-01 -5.681477556972691634e-02
4.899999999999999911e-01 -1.318308329706268170e-02
5.000000000000000000e-01 3.480772186620874342e-02
5.100000000000000089e-01 8.633483298232672021e-02
5.200000000000000178e-01 1.392731410011180115e-01
5.300000000000000266e-01 1.918676177446847209e-01
5.400000000000000355e-01 2.420769380092072653e-01
5.500000000000000444e-01 2.879355691329077427e-01
5.600000000000000533e-01 3.272884179415027628e-01
5.700000000000000622e-01 3.587969121890275392e-01
5.799999999999999600e-01 3.800244807130082059e-01
5.899999999999999689e-01 3.909980752558521178e-01
5.999999999999999778e-01 3.889668269230462938e-01
6.099999999999999867e-01 3.755502609587820229e-01
6.199999999999999956e-01 3.484886453860641664e-01
6.300000000000000044e-01 3.101776176797098605e-01
6.400000000000000133e-01 2.600009329610178388e-01
6.500000000000000222e-01 2.003062056586225048e-01
6.600000000000000311e-01 1.322387280394924369e-01
6.700000000000000400e-01 5.815726020003654517e-02
6.800000000000000488e-01 -1.962708740710383815e-02
6.900000000000000577e-01 -9.850951119359623032e-02
7.000000000000000666e-01 -1.759726158885338287e-01
7.099999999999999645e-01 -2.488517208407669545e-01
7.199999999999999734e-01 -3.155284700398136022e-01
7.299999999999999822e-01 -3.720190927514293033e-01
7.399999999999999911e-01 -4.181511600538899143e-01
7.500000000000000000e-01 -4.503695919037572493e-01
7.600000000000000089e-01 -4.690865623174383381e-01
7.700000000000000178e-01 -4.723051421511602066e-01
7.800000000000000266e-01 -4.606716049146071246e-01
7.900000000000000355e-01 -4.342483553386257689e-01
8.000000000000000444e-01 -3.938185637697932395e-01
8.100000000000000533e-01 -3.414077873231323168e-01
8.200000000000000622e-01 -2.780848270775829745e-01
8.300000000000000711e-01 -2.071693190969596254e-01
8.399999999999999689e-01 -1.303605792550312503e-01
8.499999999999999778e-01 -5.117923155492542370e-02
8.599999999999999867e-01 2.763460143034766892e-02
8.699999999999999956e-01 1.033312616035217124e-01
8.800000000000000044e-01 1.726649792181592091e-01
8.900000000000000133e-01 2.336193018191610460e-01
9.000000000000000222e-01 2.835780193131136051e-01
9.100000000000000311e-01 3.209085902288919545e-01
9.200000000000000400e-01 3.446086925662918410e-01
9.300000000000000488e-01 3.532197551990885476e-01
9.400000000000000577e-01 3.478466164015353024e-01
9.500000000000000666e-01 3.272288943859669175e-01
9.599999999999999645e-01 2.944546893323911618e-01
9.699999999999999734e-01 2.487399593168005685e-01
9.799999999999999822e-01 1.941784232962960877e-01
9.899999999999999911e-01 1.316853319753396312e-01
1.000000000000000000e+00 6.478162013308652600e-02
1.010000000000000009e+00 -4.187597835199830670e-03
1.020000000000000018e+00 -7.218895705236241800e-02
1.030000000000000027e+00 -1.365667452270747928e-01
1.040000000000000036e+00 -1.945128869839098940e-01
1.050000000000000044e+00 -2.442277263024968115e-01
1.060000000000000053e+00 -2.829009910184851484e-01
1.070000000000000062e+00 -3.104847268157236995e-01
1.080000000000000071e+00 -3.241092243057633326e-01
1.090000000000000080e+00 -3.256639158689921820e-01
1.100000000000000089e+00 -3.130275963802189865e-01
1.110000000000000098e+00 -2.890245856087066967e-01
1.120000000000000107e+00 -2.534017055996276579e-01
1.130000000000000115e+00 -2.089077793963997065e-01
1.140000000000000124e+00 -1.570742942428993150e-01
1.150000000000000133e+00 -1.005727795062788255e-01
1.159999999999999920e+00 -4.188301809025204991e-02
1.169999999999999929e+00 1.622359481984100155e-02
1.179999999999999938e+00 7.142391429367517253e-02
1.189999999999999947e+00 1.206212783002600097e-01
1.199999999999999956e+00 1.627288154685989086e-01
1.209999999999999964e+00 1.941973157159801178e-01
1.219999999999999973e+00 2.155471610431236307e-01
1.229999999999999982e+00 2.240547625444809232e-01
1.239999999999999991e+00 2.208500292168909807e-01
1.250000000000000000e+00 2.049434243900694896e-01
1.260000000000000009e+00 1.777257886798984110e-01
1.270000000000000018e+00 1.400638407066677749e-01
1.280000000000000027e+00 9.354874323536904734e-02
1.290000000000000036e+00 4.043218011052207572e-02
1.300000000000000044e+00 -1.735028488169186936e-02
1.310000000000000053e+00 -7.707089037205641646e-02
1.320000000000000062e+00 -1.361936922591558685e-01
1.330000000000000071e+00 -1.925397636336698970e-01
1.340000000000000080e+00 -2.429870129652511312e-01
1.350000000000000089e+00 -2.863736612057161124e-01
1.360000000000000098e+00 -3.199118065388391052e-01
1.370000000000000107e+00 -3.430615083969481560e-01
1.380000000000000115e+00 -3.543035207109642148e-01
1.390000000000000124e+00 -3.534448627650594310e-01
1.400000000000000133e+00 -3.407146628611697481e-01
1.409999999999999920e+00 -3.161731544912276815e-01
1.419999999999999929e+00 -2.817265571049412665e-01
1.429999999999999938e+00 -2.378038072183426554e-01
1.439999999999999947e+00 -1.873915485665748892e-01
1.449999999999999956e+00 -1.315658392959943856e-01
1.459999999999999964e+00 -7.341315117157962145e-02
1.469999999999999973e+00 -1.502174120379936792e-02
1.479999999999999982e+00 4.124757177073359871e-02
1.489999999999999991e+00 9.295309534719907452e-02
1.500000000000000000e+00 1.382538113018408343e-01
1.510000000000000009e+00 1.753447768161843778e-01
1.520000000000000018e+00 2.026621678562874618e-01
1.530000000000000027e+00 2.197841157331742457e-01
1.540000000000000036e+00 2.252984701092168307e-01
1.550000000000000044e+00 2.204715982757155246e-01
1.560000000000000053e+00 2.041020558382844741e-01
1.570000000000000062e+00 1.788073564997872678e-01
1.580000000000000071e+00 1.442218942449014774e-01
1.590000000000000080e+00 1.032518924230002716e-01
1.600000000000000089e+00 5.688034993614526913e-02
1.610000000000000098e+00 7.594593514917528064e-03
1.620000000000000107e+00 -4.276670500389442853e-02
1.630000000000000115e+00 -9.202627700200476102e-02
1.640000000000000124e+00 -1.383760194495611273e-01
1.650000000000000133e+00 -1.797787522175637032e-01
1.660000000000000142e+00 -2.152760648866183513e-01
1.669999999999999929e+00 -2.428543029280159915e-01
1.679999999999999938e+00 -2.629382308986078498e-01
1.689999999999999947e+00 -2.735622309201635183e-01
1.699999999999999956e+00 -2.763760647024063322e-01
1.709999999999999964e+00 -2.704535704396747176e-01
1.719999999999999973e+00 -2.576201579507257922e-01
1.729999999999999982e+00 -2.383062426361271247e-01
1.739999999999999991e+00 -2.143025457900165909e-01
1.750000000000000000e+00 -1.870081230063224409e-01
1.760000000000000009e+00 -1.582045656323614879e-01
1.770000000000000018e+00 -1.295683098596452920e-01
1.780000000000000027e+00 -1.029821914426338331e-01
1.790000000000000036e+00 -7.963519721051179334e-02
1.800000000000000044e+00 -6.160698243627350107e-02
1.810000000000000053e+00 -4.907642899725379870e-02
1.820000000000000062e+00 -4.401168600559727390e-02
1.830000000000000071e+00 -4.575014766240610709e-02
1.840000000000000080e+00 -5.535531252994727036e-02
1.850000000000000089e+00 -7.188705461636797633e-02
1.860000000000000098e+00 -9.520060693016962894e-02
1.870000000000000107e+00 -1.241978564061888834e-01
1.880000000000000115e+00 -1.577254885597833278e-01
1.890000000000000124e+00 -1.945050338926752609e-01
1.900000000000000133e+00 -2.329009762005197770e-01
1.910000000000000142e+00 -2.713375278477347941e-01
1.919999999999999929e+00 -3.083956743210192197e-01
1.929999999999999938e+00 -3.420726252390414168e-01
1.939999999999999947e+00 -3.716640518115732483e-01
1.949999999999999956e+00 -3.952211161181147792e-01
1.959999999999999964e+00 -4.125618945963760997e-01
1.969999999999999973e+00 -4.224364153448939563e-01
1.979999999999999982e+00 -4.249400961534621768e-01
1.989999999999999991e+00 -4.198894052086754591e-01
2.000000000000000000e+00 -4.075388998449214761e-01
2.010000000000000231e+00 -3.887756033534507383e-01
2.020000000000000018e+00 -3.640163700192673435e-01
2.030000000000000249e+00 -3.348859259818542933e-01
2.040000000000000036e+00 -3.020640472685161559e-01
2.049999999999999822e+00 -2.673355438542117102e-01
2.060000000000000053e+00 -2.318091436807191430e-01
2.069999999999999840e+00 -1.968655274924080434e-01
2.080000000000000071e+00 -1.638195885290209819e-01
2.089999999999999858e+00 -1.335631232326814632e-01
2.100000000000000089e+00 -1.070947161887284560e-01
2.109999999999999876e+00 -8.495641439612879042e-02
2.120000000000000107e+00 -6.741899476196458463e-02
2.129999999999999893e+00 -5.475340046249745768e-02
2.140000000000000124e+00 -4.638113469672745792e-02
2.149999999999999911e+00 -4.228448312752643157e-02
2.160000000000000142e+00 -4.123111317307425611e-02
2.169999999999999929e+00 -4.280996742965879204e-02
2.180000000000000160e+00 -4.559617646688170906e-02
2.189999999999999947e+00 -4.861928395599521280e-02
2.200000000000000178e+00 -5.072019041169431586e-02
2.209999999999999964e+00 -5.070095272493672228e-02
2.220000000000000195e+00 -4.764541274805161875e-02
2.229999999999999982e+00 -4.065765801507055521e-02
2.240000000000000213e+00 -2.900121434931643427e-02
2.250000000000000000e+00 -1.249797998212873532e-02
2.260000000000000231e+00 9.415995014803113516e-03
2.270000000000000018e+00 3.603746192939489418e-02
2.280000000000000249e+00 6.766614517717743638e-02
2.290000000000000036e+00 1.029098957699568356e-01
2.300000000000000266e+00 1.414864957602778028e-01
2.310000000000000053e+00 1.818387291996366728e-01
2.319999999999999840e+00 2.229451427791495355e-01
2.330000000000000071e+00 2.633925890914149415e-01
2.339999999999999858e+00 3.018061544530272755e-01
2.350000000000000089e+00 3.368373879798458592e-01
2.359999999999999876e+00 3.673530543905806911e-01
2.370000000000000107e+00 3.919693366312208549e-01
2.379999999999999893e+00 4.103325918101825565e-01
2.390000000000000124e+00 4.209779781292926626e-01
2.399999999999999911e+00 4.246588384078317513e-01
2.410000000000000142e+00 4.198952081125056912e-01
2.419999999999999929e+00 4.083469676675388627e-01
2.430000000000000160e+00 3.893627037243047595e-01
2.439999999999999947e+00 3.646261913698737867e-01
2.450000000000000178e+00 3.345759158927146815e-01
2.459999999999999964e+00 3.007737627424444948e-01
2.470000000000000195e+00 2.644138702758425108e-01
2.479999999999999982e+00 2.269997956836747877e-01
2.490000000000000213e+00 1.899126288773054783e-01
2.500000000000000000e+00 1.547147777196883067e-01
2.510000000000000231e+00 1.223592267498088970e-01
2.520000000000000018e+00 9.456100113342202906e-02
2.530000000000000249e+00 7.142678395689557036e-02
2.540000000000000036e+00 5.459514531541571902e-02
2.550000000000000266e+00 4.346986040695539205e-02
2.560000000000000053e+00 3.894743452657782601e-02
2.569999999999999840e+00 4.022213341723503144e-02
2.580000000000000071e+00 4.719417084598966083e-02
2.589999999999999858e+00 5.894753280893533925e-02
2.600000000000000089e+00 7.454954505356561900e-02
2.609999999999999876e+00 9.295728322761528939e-02
2.620000000000000107e+00 1.128336421037884479e-01
2.629999999999999893e+00 1.329167318311057777e-01
2.640000000000000124e+00 1.520337354579653077e-01
2.649999999999999911e+00 1.686047796998464687e-01
2.660000000000000142e+00 1.820386335160907587e-01
2.669999999999999929e+00 1.908030103227063012e-01
2.680000000000000160e+00 1.947672448327356087e-01
2.689999999999999947e+00 1.929721251425130513e-01
2.700000000000000178e+00 1.855506423115477754e-01
2.709999999999999964e+00 1.724160989392293508e-01
2.720000000000000195e+00 1.538843869578497836e-01
2.729999999999999982e+00 1.307310811038983889e-01
2.740000000000000213e+00 1.034795743718058825e-01
2.750000000000000000e+00 7.346832224962471236e-02
2.760000000000000231e+00 4.153763110246241896e-02
2.770000000000000018e+00 9.092448640724920539e-03
2.780000000000000249e+00 -2.259674498966218054e-02
2.790000000000000036e+00 -5.248115331445560999e-02
2.800000000000000266e+00 -7.915013594511609296e-02
2.810000000000000053e+00 -1.019002317638422889e-01
2.819999999999999840e+00 -1.196852038925651646e-01
2.830000000000000071e+00 -1.320133108150692292e-01
2.839999999999999858e+00 -1.385942152121077686e-01
2.850000000000000089e+00 -1.390731831908693650e-01
2.859999999999999876e+00 -1.340540808130673278e-01
2.870000000000000107e+00 -1.233393389818779606e-01
2.879999999999999893e+00 -1.082779432632986205e-01
2.890000000000000124e+00 -8.894208272418181738e-02
2.899999999999999911e+00 -6.697312126793107667e-02
2.910000000000000142e+00 -4.304642819650920937e-02
2.919999999999999929e+00 -1.852357813153979876e-02
2.930000000000000160e+00 5.518862624537285849e-03
2.939999999999999947e+00 2.799161332824031539e-02
2.950000000000000178e+00 4.790662182446844830e-02
2.959999999999999964e+00 6.435108696611840928e-02
2.970000000000000195e+00 7.686452330428288071e-02
2.979999999999999982e+00 8.464928193387176447e-02
2.990000000000000213e+00 8.802059977746856667e-02
3.000000000000000000e+00 8.631451288061228744e-02
3.010000000000000231e+00 8.056132244338057302e-02
3.020000000000000018e+00 7.048874573067326343e-02
3.030000000000000249e+00 5.740120655000644639e-02
3.040000000000000036e+00 4.171071046595706266e-02
3.050000000000000266e+00 2.460394507804882641e-02
3.060000000000000053e+00 6.973299288108742236e-03
3.070000000000000284e+00 -1.009162233272354638e-02
3.080000000000000071e+00 -2.565946234911413437e-02
3.089999999999999858e+00 -3.867638889474788594e-02
3.100000000000000089e+00 -4.861203949521492040e-02
3.109999999999999876e+00 -5.440665572700915942e-02
3.120000000000000107e+00 -5.624099467456419865e-02
3.129999999999999893e+00 -5.307773898594072420e-02
3.140000000000000124e+00 -4.576651463290623556e-02
3.149999999999999911e+00 -3.380251680508919443e-02
3.160000000000000142e+00 -1.818632103660345820e-02
3.169999999999999929e+00 8.429481421803521751e-04
3.180000000000000160e+00 2.227745588091934598e-02
3.189999999999999947e+00 4.532525852564861513e-02
3.200000000000000178e+00 6.895458640498909608e-02
3.209999999999999964e+00 9.220838169388512195e-02
3.220000000000000195e+00 1.139671029847327682e-01
3.229999999999999982e+00 1.335539485663129744e-01
3.240000000000000213e+00 1.497061936769082946e-01
3.250000000000000000e+00 1.623503207099473433e-01
3.260000000000000231e+00 1.702431418198343815e-01
3.270000000000000018e+00 1.738331710528818463e-01
3.280000000000000249e+00 1.724123155591195944e-01
3.290000000000000036e+00 1.665785718423446193e-01
3.300000000000000266e+00 1.563683174279560939e-01
3.310000000000000053e+00 1.424574875757902148e-01
3.320000000000000284e+00 1.255194395132100960e-01
3.330000000000000071e+00 1.063193472263296996e-01
3.339999999999999858e+00 8.585660737897617134e-02
3.350000000000000089e+00 6.505245036322439278e-02
3.359999999999999876e+00 4.480918070010066201e-02
3.370000000000000107e+00 2.627678591316280621e-02
3.379999999999999893e+00 9.935556200698428264e-03
3.390000000000000124e+00 -3.083206590455174131e-03
3.399999999999999911e+00 -1.266134245599784963e-02
3.410000000000000142e+00 -1.807882652655046218e-02
3.419999999999999929e+00 -1.942871370332505121e-02
3.430000000000000160e+00 -1.663334668761085045e-02
3.439999999999999947e+00 -9.933959142173950582e-03
3.450000000000000178e+00 1.087582733664332543e-04
3.459999999999999964e+00 1.309176893759462883e-02
3.470000000000000195e+00 2.803926436012870935e-02
3.479999999999999982e+00 4.431175576555376749e-02
3.490000000000000213e+00 6.088991458128673734e-02
3.500000000000000000e+00 7.682419603523979457e-02
3.510000000000000231e+00 9.136773915812299030e-02
3.520000000000000018e+00 1.034860796784773107e-01
3.530000000000000249e+00 1.127011504495172151e-01
3.540000000000000036e+00 1.182708304080736378e-01
3.550000000000000266e+00 1.198946983377376513e-01
3.560000000000000053e+00 1.174060728510301216e-01
3.570000000000000284e+00 1.106374479171380876e-01
3.580000000000000071e+00 1.000810522336658404e-01
3.589999999999999858e+00 8.572984564835084420e-02
3.600000000000000089e+00 6.859505573982516147e-02
3.609999999999999876e+00 4.892553556369260565e-02
3.620000000000000107e+00 2.790450048925937482e-02
3.629999999999999893e+00 6.222394076341652633e-03
3.640000000000000124e+00 -1.514340460216995546e-02
3.649999999999999911e+00 -3.526093109400738057e-02
3.660000000000000142e+00 -5.334333859117725007e-02
3.669999999999999929e+00 -6.861087521764913655e-02
3.680000000000000160e+00 -8.039221418236647265e-02
3.689999999999999947e+00 -8.839927929742009971e-02
3.700000000000000178e+00 -9.203569883433102006e-02
3.709999999999999964e+00 -9.168070060412901456e-02
3.720000000000000195e+00 -8.684117662199918042e-02
3.729999999999999982e+00 -7.848607791330425298e-02
3.740000000000000213e+00 -6.644258755780010905e-02
3.750000000000000000e+00 -5.188569879504342786e-02
3.760000000000000231e+00 -3.521613639569971810e-02
3.770000000000000018e+00 -1.747433637721538396e-02
3.780000000000000249e+00 5.483467238767743973e-04
3.790000000000000036e+00 1.791387360501124626e-02
3.800000000000000266e+00 3.382276203257916780e-02
3.810000000000000053e+00 4.737749891392924184e-02
3.820000000000000284e+00 5.814232753969256207e-02
3.830000000000000071e+00 6.521918238935958678e-02
3.839999999999999858e+00 6.879141276479444622e-02
3.850000000000000089e+00 6.798138941223363929e-02
3.859999999999999876e+00 6.354745780540847766e-02
