# [DEFAULT]
# # input and output specifications
# dataformat = QA
# outputtype = gr
# 
# # PDF calculation setup
# mode = xray
# wavelength = 
# composition = Cl4.0Cr1.0Na1.0
# bgscale = 1.0
# rpoly = 0.9
# qmaxinst = 28
# qmin = 0.0
# qmax = 22
# rmin = 0.0
# rmax = 30.0
# rstep = 0.01
# 
# # End of config --------------------------------------------------------------
# 
# #### start data
# #S 1
# #L r(Å)  G(Å$^$)
# 
0.000000000000000000e+00 0.000000000000000000e+00
1.000000000000000021e-02 -2.144858767165136026e-03
2.000000000000000042e-02 -4.444638127872740929e-03
2.999999999999999889e-02 -7.075886060891650210e-03
4.000000000000000083e-02 -1.010499371771896721e-02
5.000000000000000278e-02 -1.361821607292817114e-02
5.999999999999999778e-02 -1.757411518623376925e-02
7.000000000000000666e-02 -2.189519445883435916e-02
8.000000000000000167e-02 -2.641215816982515896e-02
8.999999999999999667e-02 -3.090102792323325478e-02
1.000000000000000056e-01 -3.503846105501645658e-02
1.100000000000000006e-01 -3.856850229219016546e-02
1.199999999999999956e-01 -4.099150630957740238e-02
1.300000000000000044e-01 -4.216908494620229958e-02
1.400000000000000133e-01 -4.151819843139205324e-02
1.499999999999999944e-01 -3.905579350596089655e-02
1.600000000000000033e-01 -3.436571079183627087e-02
1.700000000000000122e-01 -2.756403775272927778e-02
1.799999999999999933e-01 -1.858662398839426924e-02
1.900000000000000022e-01 -7.668912525173315377e-03
2.000000000000000111e-01 4.853363678471460732e-03
2.099999999999999922e-01 1.856712481497669806e-02
2.200000000000000011e-01 3.284922700797617001e-02
2.300000000000000100e-01 4.701657362478929569e-02
2.399999999999999911e-01 6.042443125499684375e-02
2.500000000000000000e-01 7.202195450219549266e-02
2.600000000000000089e-01 8.139353510532036651e-02
2.700000000000000178e-01 8.739235003040399241e-02
2.800000000000000266e-01 8.977433749666648144e-02
2.899999999999999800e-01 8.769934917542503150e-02
2.999999999999999889e-01 8.105255386142470875e-02
3.099999999999999978e-01 6.962493068258154838e-02
3.200000000000000067e-01 5.344629811266764230e-02
3.300000000000000155e-01 3.307390509055958133e-02
3.400000000000000244e-01 8.787275415456163169e-03
3.500000000000000333e-01 -1.821908107235045010e-02
3.599999999999999867e-01 -4.721860685918161105e-02
3.699999999999999956e-01 -7.677015291292481336e-02
3.800000000000000044e-01 -1.054852999096615451e-01
3.900000000000000133e-01 -1.320856642828618366e-01
4.000000000000000222e-01 -1.547908610472228941e-01
4.100000000000000311e-01 -1.724860821237078623e-01
4.199999999999999845e-01 -1.836165456863159962e-01
4.299999999999999933e-01 -1.871184654594040819e-01
4.400000000000000022e-01 -1.822920656591592026e-01
4.500000000000000111e-01 -1.680833316176231496e-01
4.600000000000000200e-01 -1.450700132558846445e-01
4.700000000000000289e-01 -1.123129273667954064e-01
4.799999999999999822e-01 -7.172956652558497292e-02
4.899999999999999911e-01 -2.278573003890254148e-02
5.000000000000000000e-01 3.179687228961167872e-02
5.100000000000000089e-01 9.121487676350106821e-02
5.200000000000000178e-01 1.529291849440202744e-01
5.300000000000000266e-01 2.149381308809549807e-01
5.400000000000000355e-01 2.747681396130517428e-01
5.500000000000000444e-01 3.300510518340029620e-01
5.600000000000000533e-01 3.781463418753330807e-01
5.700000000000000622e-01 4.173291892386683521e-01
5.799999999999999600e-01 4.445802748535074844e-01
5.899999999999999689e-01 4.597482781651921480e-01
5.999999999999999778e-01 4.593731299371944798e-01
6.099999999999999867e-01 4.452177992743009960e-01
6.199999999999999956e-01 4.143374402819127722e-01
6.300000000000000044e-01 3.694752459433485181e-01
6.400000000000000133e-01 3.096451874838792029e-01
6.500000000000000222e-01 2.375652959700012001e-01
6.600000000000000311e-01 1.544342096575982981e-01
6.700000000000000400e-01 6.299836357437114953e-02
6.800000000000000488e-01 -3.400746692140382832e-02
6.900000000000000577e-01 -1.335310731572354470e-01
7.000000000000000666e-01 -2.324241076374398418e-01
7.099999999999999645e-01 -3.269360679101139255e-01
7.199999999999999734e-01 -4.148511408541581402e-01
7.299999999999999822e-01 -4.913712023898982872e-01
7.399999999999999911e-01 -5.559490375862841116e-01
7.500000000000000000e-01 -6.041488463544920640e-01
7.600000000000000089e-01 -6.361618395119977842e-01
7.700000000000000178e-01 -6.493077850355850611e-01
7.800000000000000266e-01 -6.440722281155955020e-01
7.900000000000000355e-01 -6.202394497084530167e-01
8.000000000000000444e-01 -5.784367847923013173e-01
8.100000000000000533e-01 -5.209143389037452776e-01
8.200000000000000622e-01 -4.485881468895279722e-01
8.300000000000000711e-01 -3.654702206647817420e-01
8.399999999999999689e-01 -2.731657394238518610e-01
8.499999999999999778e-01 -1.761613575271072096e-01
8.599999999999999867e-01 -7.735830753415134931e-02
8.699999999999999956e-01 1.958133765727543621e-02
8.800000000000000044e-01 1.109217654595326119e-01
8.900000000000000133e-01 1.939168013605723773e-01
9.000000000000000222e-01 2.653282426766202517e-01
9.100000000000000311e-01 3.229017372035168920e-01
9.200000000000000400e-01 3.651448730388306418e-01
9.300000000000000488e-01 3.900120664349003841e-01
9.400000000000000577e-01 3.984617743354242902e-01
9.500000000000000666e-01 3.886397426034847169e-01
9.599999999999999645e-01 3.639427275232033909e-01
9.699999999999999734e-01 3.229950263549042910e-01
9.799999999999999822e-01 2.705483076938891007e-01
9.899999999999999911e-01 2.072654401855872630e-01
1.000000000000000000e+00 1.373036545935780728e-01
1.010000000000000009e+00 6.317086115690265236e-02
1.020000000000000018e+00 -1.152227554694661669e-02
1.030000000000000027e+00 -8.367943402210741011e-02
1.040000000000000036e+00 -1.499496622273865098e-01
1.050000000000000044e+00 -2.080228085735099097e-01
1.060000000000000053e+00 -2.545328205670897570e-01
1.070000000000000062e+00 -2.890695967975895342e-01
1.080000000000000071e+00 -3.081532193266672270e-01
1.090000000000000080e+00 -3.136017062228831920e-01
1.100000000000000089e+00 -3.027115861130303398e-01
1.110000000000000098e+00 -2.784684934964734571e-01
1.120000000000000107e+00 -2.402828266307241722e-01
1.130000000000000115e+00 -1.911360220475411820e-01
1.140000000000000124e+00 -1.325584367458088053e-01
1.150000000000000133e+00 -6.748616526537078164e-02
1.159999999999999920e+00 1.309616452300939315e-03
1.169999999999999929e+00 7.075794546833781562e-02
1.179999999999999938e+00 1.380813246164518393e-01
1.189999999999999947e+00 1.998149279486475804e-01
1.199999999999999956e+00 2.544336434539021252e-01
1.209999999999999964e+00 2.979081115291318249e-01
1.219999999999999973e+00 3.304787544472718164e-01
1.229999999999999982e+00 3.489182334415605879e-01
1.239999999999999991e+00 3.542161489851539669e-01
1.250000000000000000e+00 3.450141632008779102e-01
1.260000000000000009e+00 3.226373093721652263e-01
1.270000000000000018e+00 2.878319185794852020e-01
1.280000000000000027e+00 2.421575269872165703e-01
1.290000000000000036e+00 1.880254676260324498e-01
1.300000000000000044e+00 1.273651566286636283e-01
1.310000000000000053e+00 6.329307599517694505e-02
1.320000000000000062e+00 -1.614291823037128371e-03
1.330000000000000071e+00 -6.468715802202870679e-02
1.340000000000000080e+00 -1.226435002561250265e-01
1.350000000000000089e+00 -1.738930409177621428e-01
1.360000000000000098e+00 -2.153696262522638294e-01
1.370000000000000107e+00 -2.462188195545712555e-01
1.380000000000000115e+00 -2.646377357731273250e-01
1.390000000000000124e+00 -2.701938973283798950e-01
1.400000000000000133e+00 -2.629455094945346016e-01
1.409999999999999920e+00 -2.427546014984142964e-01
1.419999999999999929e+00 -2.115392889655570152e-01
1.429999999999999938e+00 -1.695554109995338621e-01
1.439999999999999947e+00 -1.199934733058674041e-01
1.449999999999999956e+00 -6.378716007598764226e-02
1.459999999999999964e+00 -4.341770671833299067e-03
1.469999999999999973e+00 5.625831992563075368e-02
1.479999999999999982e+00 1.153709591067778040e-01
1.489999999999999991e+00 1.704264325562986349e-01
1.500000000000000000e+00 2.193516680622223936e-01
1.510000000000000009e+00 2.601617783996949540e-01
1.520000000000000018e+00 2.910976562310746973e-01
1.530000000000000027e+00 3.115899058350725670e-01
1.540000000000000036e+00 3.200513251773683399e-01
1.550000000000000044e+00 3.176961111667118698e-01
1.560000000000000053e+00 3.031572094046693366e-01
1.570000000000000062e+00 2.791127180953187903e-01
1.580000000000000071e+00 2.450699219570491305e-01
1.590000000000000080e+00 2.040568972778576962e-01
1.600000000000000089e+00 1.570194398169269534e-01
1.610000000000000098e+00 1.065639450065236915e-01
1.620000000000000107e+00 5.457571320018345107e-02
1.630000000000000115e+00 3.335334275414441815e-03
1.640000000000000124e+00 -4.525847746271927097e-02
1.650000000000000133e+00 -8.908337040716488020e-02
1.660000000000000142e+00 -1.270912368228213629e-01
1.669999999999999929e+00 -1.571993341476859429e-01
1.679999999999999938e+00 -1.797781754049370961e-01
1.689999999999999947e+00 -1.928077897706680088e-01
1.699999999999999956e+00 -1.979296768094458425e-01
1.709999999999999964e+00 -1.941911063774700852e-01
1.719999999999999973e+00 -1.834370365650032642e-01
1.729999999999999982e+00 -1.661039170891256966e-01
1.739999999999999991e+00 -1.440132686266525075e-01
1.750000000000000000e+00 -1.185903527629721677e-01
1.760000000000000009e+00 -9.164821233721613669e-02
1.770000000000000018e+00 -6.488884232601317692e-02
1.780000000000000027e+00 -4.021980062761994906e-02
1.790000000000000036e+00 -1.883754901920546912e-02
1.800000000000000044e+00 -2.833420626038244371e-03
1.810000000000000053e+00 7.628764154385393910e-03
1.820000000000000062e+00 1.058929320176043437e-02
1.830000000000000071e+00 6.737883826109184598e-03
1.840000000000000080e+00 -4.962694768127905165e-03
1.850000000000000089e+00 -2.354637982296130597e-02
1.860000000000000098e+00 -4.884305187518087760e-02
1.870000000000000107e+00 -7.974102226044131603e-02
1.880000000000000115e+00 -1.150869233467166353e-01
1.890000000000000124e+00 -1.536169664524566492e-01
1.900000000000000133e+00 -1.937358535606840126e-01
1.910000000000000142e+00 -2.339348159570478203e-01
1.919999999999999929e+00 -2.728674196517112405e-01
1.929999999999999938e+00 -3.086836027097527024e-01
1.939999999999999947e+00 -3.407619351429544974e-01
1.949999999999999956e+00 -3.673809279304808273e-01
1.959999999999999964e+00 -3.884587466691953872e-01
1.969999999999999973e+00 -4.029920267476779783e-01
1.979999999999999982e+00 -4.112072672563599762e-01
1.989999999999999991e+00 -4.131078094278446966e-01
2.000000000000000000e+00 -4.091187221943676788e-01
2.010000000000000231e+00 -4.001711208508238471e-01
2.020000000000000018e+00 -3.868856769969025167e-01
2.030000000000000249e+00 -3.707274072509754159e-01
2.040000000000000036e+00 -3.525805655560074747e-01
2.049999999999999822e+00 -3.338730143654815019e-01
2.060000000000000053e+00 -3.157960211697493635e-01
2.069999999999999840e+00 -2.992911525464320710e-01
2.080000000000000071e+00 -2.855056745231780435e-01
2.089999999999999858e+00 -2.748944010950828409e-01
2.100000000000000089e+00 -2.680760172311008604e-01
2.109999999999999876e+00 -2.651139587704826606e-01
2.120000000000000107e+00 -2.658290845835895588e-01
2.129999999999999893e+00 -2.699103521555185070e-01
2.140000000000000124e+00 -2.764482767837986854e-01
2.149999999999999911e+00 -2.846797211718723464e-01
2.160000000000000142e+00 -2.933561067480083273e-01
2.169999999999999929e+00 -3.011241742080814632e-01
2.180000000000000160e+00 -3.068962996159236289e-01
2.189999999999999947e+00 -3.089290430038065249e-01
2.200000000000000178e+00 -3.064537106592171711e-01
2.209999999999999964e+00 -2.979312000947609285e-01
2.220000000000000195e+00 -2.828148527482496899e-01
2.229999999999999982e+00 -2.603628124518339026e-01
2.240000000000000213e+00 -2.302027202132906902e-01
2.250000000000000000e+00 -1.927329687707695638e-01
2.260000000000000231e+00 -1.478183651959226741e-01
2.270000000000000018e+00 -9.697006045536779584e-02
2.280000000000000249e+00 -4.049179648122538944e-02
2.290000000000000036e+00 1.944954705324970778e-02
2.300000000000000266e+00 8.170919701527207257e-02
2.310000000000000053e+00 1.441710621609090803e-01
2.319999999999999840e+00 2.048750413849571017e-01
2.330000000000000071e+00 2.619931483089875668e-01
2.339999999999999858e+00 3.134306050327522741e-01
2.350000000000000089e+00 3.574690734752087318e-01
2.359999999999999876e+00 3.927186908040224411e-01
2.370000000000000107e+00 4.174145217741060954e-01
2.379999999999999893e+00 4.315358941895097722e-01
2.390000000000000124e+00 4.332359491133327967e-01
2.399999999999999911e+00 4.241658897762842217e-01
2.410000000000000142e+00 4.025466854834439667e-01
2.419999999999999929e+00 3.712427714372692478e-01
2.430000000000000160e+00 3.297705303912421004e-01
2.439999999999999947e+00 2.808707079211035240e-01
2.450000000000000178e+00 2.256086480078854373e-01
2.459999999999999964e+00 1.664674312451789595e-01
2.470000000000000195e+00 1.054451173417391557e-01
2.479999999999999982e+00 4.493051296991194821e-02
2.490000000000000213e+00 -1.304625623095345341e-02
2.500000000000000000e+00 -6.597089426441528348e-02
2.510000000000000231e+00 -1.126898853930877187e-01
2.520000000000000018e+00 -1.504024368448761417e-01
2.530000000000000249e+00 -1.793791794191797462e-01
2.540000000000000036e+00 -1.969437787940897244e-01
2.550000000000000266e+00 -2.044048285052642577e-01
2.560000000000000053e+00 -2.003207363182510081e-01
2.569999999999999840e+00 -1.861652914417385174e-01
2.580000000000000071e+00 -1.621017839157348761e-01
2.589999999999999858e+00 -1.296359976934371439e-01
2.600000000000000089e+00 -9.025180283245588797e-02
2.609999999999999876e+00 -4.553634840630961522e-02
2.620000000000000107e+00 2.365078195132989253e-03
2.629999999999999893e+00 5.161553317758655474e-02
2.640000000000000124e+00 1.002605657215520363e-01
2.649999999999999911e+00 1.460266617966907432e-01
2.660000000000000142e+00 1.877937889102128111e-01
2.669999999999999929e+00 2.232867166398028180e-01
2.680000000000000160e+00 2.521001994867980156e-01
2.689999999999999947e+00 2.726989227229149049e-01
2.700000000000000178e+00 2.850712411102571675e-01
2.709999999999999964e+00 2.888899583449155983e-01
2.720000000000000195e+00 2.843707345826199662e-01
2.729999999999999982e+00 2.724391350864849848e-01
2.740000000000000213e+00 2.535224481157358767e-01
2.750000000000000000e+00 2.294453958545098482e-01
2.760000000000000231e+00 2.009568541876009529e-01
2.770000000000000018e+00 1.701275757279697154e-01
2.780000000000000249e+00 1.382300058706253665e-01
2.790000000000000036e+00 1.069162958392047974e-01
2.800000000000000266e+00 7.775776966342927421e-02
2.810000000000000053e+00 5.186095959498918107e-02
2.819999999999999840e+00 3.048691486244908821e-02
2.830000000000000071e+00 1.436280060806945959e-02
2.839999999999999858e+00 3.925698880578236231e-03
2.850000000000000089e+00 -3.739687447731520264e-04
2.859999999999999876e+00 8.816895090931691588e-04
2.870000000000000107e+00 7.856810025395198627e-03
2.879999999999999893e+00 1.911839094769433173e-02
2.890000000000000124e+00 3.442402645615012108e-02
2.899999999999999911e+00 5.200926823473490251e-02
2.910000000000000142e+00 7.092755199240954878e-02
2.919999999999999929e+00 8.969329741063897243e-02
2.930000000000000160e+00 1.069548730483880217e-01
2.939999999999999947e+00 1.215039112052704456e-01
2.950000000000000178e+00 1.321852350574474200e-01
2.959999999999999964e+00 1.379767832512362458e-01
2.970000000000000195e+00 1.384429788183199894e-01
2.979999999999999982e+00 1.327044184870422305e-01
2.990000000000000213e+00 1.213180422726527763e-01
3.000000000000000000e+00 1.036069029086646026e-01
3.010000000000000231e+00 8.100049371009832022e-02
3.020000000000000018e+00 5.337217421364334052e-02
3.030000000000000249e+00 2.245293848292899755e-02
3.040000000000000036e+00 -1.100585290942475772e-02
3.050000000000000266e+00 -4.542733659289025644e-02
3.060000000000000053e+00 -7.949577228567152043e-02
3.070000000000000284e+00 -1.117313420951660807e-01
3.080000000000000071e+00 -1.408610663380712447e-01
3.089999999999999858e+00 -1.654003632891218878e-01
3.100000000000000089e+00 -1.847130943597357355e-01
3.109999999999999876e+00 -1.972434448681306962e-01
3.120000000000000107e+00 -2.034051473328787052e-01
3.129999999999999893e+00 -2.016067512247965154e-01
3.140000000000000124e+00 -1.932158041160868811e-01
3.149999999999999911e+00 -1.773931147108389061e-01
3.160000000000000142e+00 -1.556558028235429936e-01
3.169999999999999929e+00 -1.282529811791307817e-01
3.180000000000000160e+00 -9.664708721714369843e-02
3.189999999999999947e+00 -6.192177975608875728e-02
3.200000000000000178e+00 -2.552150383094545921e-02
3.209999999999999964e+00 1.116511478195566023e-02
3.220000000000000195e+00 4.660423137410088512e-02
3.229999999999999982e+00 7.971880383291124472e-02
3.240000000000000213e+00 1.087821587946267293e-01
3.250000000000000000e+00 1.334970043021583286e-01
3.260000000000000231e+00 1.521177181890063235e-01
3.270000000000000018e+00 1.650644732519983837e-01
3.280000000000000249e+00 1.712459896374267376e-01
3.290000000000000036e+00 1.713109957583884013e-01
3.300000000000000266e+00 1.651406957299217382e-01
3.310000000000000053e+00 1.534894028674924082e-01
3.320000000000000284e+00 1.371237854662235578e-01
3.330000000000000071e+00 1.168943816642745298e-01
3.339999999999999858e+00 9.409218631475096961e-02
3.350000000000000089e+00 6.973748259117384940e-02
3.359999999999999876e+00 4.512150830694559162e-02
3.370000000000000107e+00 2.152995409142433730e-02
3.379999999999999893e+00 -1.955836606839029190e-04
3.390000000000000124e+00 -1.871691353542624323e-02
3.399999999999999911e+00 -3.367499700009410346e-02
3.410000000000000142e+00 -4.413702762770703447e-02
3.419999999999999929e+00 -5.004835263732648060e-02
3.430000000000000160e+00 -5.119890214359804070e-02
3.439999999999999947e+00 -4.774091310716251785e-02
3.450000000000000178e+00 -4.022849727017671628e-02
3.459999999999999964e+00 -2.901225992808231097e-02
3.470000000000000195e+00 -1.518299226846214073e-02
3.479999999999999982e+00 6.442876012079466058e-04
3.490000000000000213e+00 1.726380767542044434e-02
3.500000000000000000e+00 3.370824953073715824e-02
3.510000000000000231e+00 4.905428771997443621e-02
3.520000000000000018e+00 6.220346741639719984e-02
3.530000000000000249e+00 7.256347367580466556e-02
3.540000000000000036e+00 7.932874603000476810e-02
3.550000000000000266e+00 8.214738636593842125e-02
3.560000000000000053e+00 8.083533717295711407e-02
3.570000000000000284e+00 7.523871075325599955e-02
3.580000000000000071e+00 6.589091811953888544e-02
3.589999999999999858e+00 5.287314257365474668e-02
3.600000000000000089e+00 3.726981803210864530e-02
3.609999999999999876e+00 1.950881840752251989e-02
3.620000000000000107e+00 8.374574386795421294e-04
3.629999999999999893e+00 -1.782113919098272936e-02
3.640000000000000124e+00 -3.543370750989289358e-02
3.649999999999999911e+00 -5.085736179933562917e-02
3.660000000000000142e+00 -6.324644947090787839e-02
3.669999999999999929e+00 -7.170540654995800900e-02
3.680000000000000160e+00 -7.549821910158634186e-02
3.689999999999999947e+00 -7.436662986599654190e-02
3.700000000000000178e+00 -6.765166693854307578e-02
3.709999999999999964e+00 -5.591924641999784090e-02
3.720000000000000195e+00 -3.864003788386127097e-02
3.729999999999999982e+00 -1.708260596681247453e-02
3.740000000000000213e+00 8.873975767509891671e-03
3.750000000000000000e+00 3.774019865391357170e-02
3.760000000000000231e+00 6.893292059706561392e-02
3.770000000000000018e+00 1.011429864395651107e-01
3.780000000000000249e+00 1.333298566274248864e-01
3.790000000000000036e+00 1.643088656380936319e-01
3.800000000000000266e+00 1.930677458390558376e-01
3.810000000000000053e+00 2.184579054100642959e-01
3.820000000000000284e+00 2.399603815882986602e-01
3.830000000000000071e+00 2.564037573323106889e-01
3.839999999999999858e+00 2.680774785727240705e-01
3.850000000000000089e+00 2.738078704405265684e-01
3.859999999999999876e+00 2.746205562298911218e-01
