# [DEFAULT]
# # input and output specifications
# dataformat = QA
# outputtype = gr
# 
# # PDF calculation setup
# mode = xray
# wavelength = 
# composition = Cl4.0Cr1.0Na1.0
# bgscale = 1.0
# rpoly = 0.9
# qmaxinst = 28
# qmin = 0.0
# qmax = 22
# rmin = 0.0
# rmax = 30.0
# rstep = 0.01
# 
# # End of config --------------------------------------------------------------
# 
# #### start data
# #S 1
# #L r(Å)  G(Å$^$)
# 
0.000000000000000000e+00 0.000000000000000000e+00
1.000000000000000021e-02 -3.523179071224598682e-03
2.000000000000000042e-02 -7.133994519606659188e-03
2.999999999999999889e-02 -1.092675449850147480e-02
4.000000000000000083e-02 -1.492475863657037258e-02
5.000000000000000278e-02 -1.914628824552245395e-02
5.999999999999999778e-02 -2.352408399736703390e-02
7.000000000000000666e-02 -2.795359780203651723e-02
8.000000000000000167e-02 -3.225266018699479709e-02
8.999999999999999667e-02 -3.622274737012324414e-02
1.000000000000000056e-01 -3.954157934307238331e-02
1.100000000000000006e-01 -4.202414755135908120e-02
1.199999999999999956e-01 -4.319236433028005029e-02
1.300000000000000044e-01 -4.299921335692147989e-02
1.400000000000000133e-01 -4.091649723918029669e-02
1.499999999999999944e-01 -3.704178432977388302e-02
1.600000000000000033e-01 -3.103680765979936404e-02
1.700000000000000122e-01 -2.308055212405742823e-02
1.799999999999999933e-01 -1.317846677695138149e-02
1.900000000000000022e-01 -1.616322385075440616e-03
2.000000000000000111e-01 1.123933141467782157e-02
2.099999999999999922e-01 2.493500232093330896e-02
2.200000000000000011e-01 3.887255768788502180e-02
2.300000000000000100e-01 5.234154607430199085e-02
2.399999999999999911e-01 6.477593166419368109e-02
2.500000000000000000e-01 7.512044253782289294e-02
2.600000000000000089e-01 8.306555025591490227e-02
2.700000000000000178e-01 8.751037313925015548e-02
2.800000000000000266e-01 8.830557715219146397e-02
2.899999999999999800e-01 8.469260413661258702e-02
2.999999999999999889e-01 7.664232576986358680e-02
3.099999999999999978e-01 6.402575004642402368e-02
3.200000000000000067e-01 4.695450363821833395e-02
3.300000000000000155e-01 2.602708401253491649e-02
3.400000000000000244e-01 1.603424619794294875e-03
3.500000000000000333e-01 -2.514547430982299464e-02
3.599999999999999867e-01 -5.341862592728412185e-02
3.699999999999999956e-01 -8.186266757653921922e-02
3.800000000000000044e-01 -1.090541822873831862e-01
3.900000000000000133e-01 -1.338288755862879209e-01
4.000000000000000222e-01 -1.544412035300987696e-01
4.100000000000000311e-01 -1.698891984599735505e-01
4.199999999999999845e-01 -1.787079644447239213e-01
4.299999999999999933e-01 -1.799497885148577669e-01
4.400000000000000022e-01 -1.730191944097225765e-01
4.500000000000000111e-01 -1.569905056724530124e-01
4.600000000000000200e-01 -1.325121572633845557e-01
4.700000000000000289e-01 -9.879328449217412988e-02
4.799999999999999822e-01 -5.774595002330480675e-02
4.899999999999999911e-01 -9.004465288704074227e-03
5.000000000000000000e-01 4.479344533303577375e-02
5.100000000000000089e-01 1.027343103180208272e-01
5.200000000000000178e-01 1.623761605562351606e-01
5.300000000000000266e-01 2.217039425611794234e-01
5.400000000000000355e-01 2.783460025210157118e-01
5.500000000000000444e-01 3.300104944302308385e-01
5.600000000000000533e-01 3.741680978007358438e-01
5.700000000000000622e-01 4.092256493634990333e-01
5.799999999999999600e-01 4.322978286093012712e-01
5.899999999999999689e-01 4.433669323900039094e-01
5.999999999999999778e-01 4.391466958401376020e-01
6.099999999999999867e-01 4.214839904733890807e-01
6.199999999999999956e-01 3.876362720664885964e-01
6.300000000000000044e-01 3.403731768135139779e-01
6.400000000000000133e-01 2.788752144760452967e-01
6.500000000000000222e-01 2.058638022282997804e-01
6.600000000000000311e-01 1.226165337283690870e-01
6.700000000000000400e-01 3.187426873234198987e-02
6.800000000000000488e-01 -6.365860805516082577e-02
6.900000000000000577e-01 -1.609420835362824487e-01
7.000000000000000666e-01 -2.569585320780682913e-01
7.099999999999999645e-01 -3.479866304252811071e-01
7.199999999999999734e-01 -4.320036202753533838e-01
7.299999999999999822e-01 -5.042775923460309784e-01
7.399999999999999911e-01 -5.644571716613902002e-01
7.500000000000000000e-01 -6.082360324226564474e-01
7.600000000000000089e-01 -6.359548862373516354e-01
7.700000000000000178e-01 -6.450868318167340965e-01
7.800000000000000266e-01 -6.362371362924138518e-01
7.900000000000000355e-01 -6.093068115386753858e-01
8.000000000000000444e-01 -5.650303709713067057e-01
8.100000000000000533e-01 -5.056909516172503061e-01
8.200000000000000622e-01 -4.323090159929312004e-01
8.300000000000000711e-01 -3.488234070977090928e-01
8.399999999999999689e-01 -2.569389940440358067e-01
8.499999999999999778e-01 -1.609803708121461951e-01
8.599999999999999867e-01 -6.389918554881807156e-02
8.699999999999999956e-01 3.082543121505466888e-02
8.800000000000000044e-01 1.194973893794751552e-01
8.900000000000000133e-01 1.995287848995787594e-01
9.000000000000000222e-01 2.677877182648529808e-01
9.100000000000000311e-01 3.221607130173261280e-01
9.200000000000000400e-01 3.612765828715034377e-01
9.300000000000000488e-01 3.832259643394794746e-01
9.400000000000000577e-01 3.890507881141830882e-01
9.500000000000000666e-01 3.770396789106356672e-01
9.599999999999999645e-01 3.505943364203028545e-01
9.699999999999999734e-01 3.084924734548730174e-01
9.799999999999999822e-01 2.554124919737559840e-01
9.899999999999999911e-01 1.921159232946604567e-01
1.000000000000000000e+00 1.226716693374402256e-01
1.010000000000000009e+00 4.960086314070951546e-02
1.020000000000000018e+00 -2.357516996616521032e-02
1.030000000000000027e+00 -9.382230515861461617e-02
1.040000000000000036e+00 -1.578795587896655861e-01
1.050000000000000044e+00 -2.135426975341729317e-01
1.060000000000000053e+00 -2.575438951406222032e-01
1.070000000000000062e+00 -2.895792660020265474e-01
1.080000000000000071e+00 -3.062859276223878768e-01
1.090000000000000080e+00 -3.095490854775936329e-01
1.100000000000000089e+00 -2.967949692866557188e-01
1.110000000000000098e+00 -2.710297016273428561e-01
1.120000000000000107e+00 -2.317652156173155564e-01
1.130000000000000115e+00 -1.819808615351799219e-01
1.140000000000000124e+00 -1.232490075700169579e-01
1.150000000000000133e+00 -5.849259984159242698e-02
1.159999999999999920e+00 9.544026619263012989e-03
1.169999999999999929e+00 7.781108653984275536e-02
1.179999999999999938e+00 1.436155087383386153e-01
1.189999999999999947e+00 2.035270702563450607e-01
1.199999999999999956e+00 2.561344627116550754e-01
1.209999999999999964e+00 2.974676491707318737e-01
1.219999999999999973e+00 3.278741613072984062e-01
1.229999999999999982e+00 3.442177307059011704e-01
1.239999999999999991e+00 3.475668453780008105e-01
1.250000000000000000e+00 3.366592083207805008e-01
1.260000000000000009e+00 3.128824185381428591e-01
1.270000000000000018e+00 2.770493512773221090e-01
1.280000000000000027e+00 2.307776030200213435e-01
1.290000000000000036e+00 1.764908982013967675e-01
1.300000000000000044e+00 1.161792721094512537e-01
1.310000000000000053e+00 5.290743958247814266e-02
1.320000000000000062e+00 -1.068488484749347683e-02
1.330000000000000071e+00 -7.203156583128672574e-02
1.340000000000000080e+00 -1.278109704834692051e-01
1.350000000000000089e+00 -1.765463118216897831e-01
1.360000000000000098e+00 -2.151839795403406030e-01
1.370000000000000107e+00 -2.429636578261715751e-01
1.380000000000000115e+00 -2.581372050654099914e-01
1.390000000000000124e+00 -2.603529887459315462e-01
1.400000000000000133e+00 -2.497398160626832786e-01
1.409999999999999920e+00 -2.262374355429000450e-01
1.419999999999999929e+00 -1.918227064356284317e-01
1.429999999999999938e+00 -1.468368869880855576e-01
1.439999999999999947e+00 -9.449336342207498296e-02
1.449999999999999956e+00 -3.582731308287342986e-02
1.459999999999999964e+00 2.577353994274603557e-02
1.469999999999999973e+00 8.813921751089780210e-02
1.479999999999999982e+00 1.486535610425200049e-01
1.489999999999999991e+00 2.047009604924260318e-01
1.500000000000000000e+00 2.542312172733038333e-01
1.510000000000000009e+00 2.952603033833071100e-01
1.520000000000000018e+00 3.260458234163883251e-01
1.530000000000000027e+00 3.460625537678243546e-01
1.540000000000000036e+00 3.537371402902420581e-01
1.550000000000000044e+00 3.503590742930207669e-01
1.560000000000000053e+00 3.345809472568697651e-01
1.570000000000000062e+00 3.091669454312903076e-01
1.580000000000000071e+00 2.736656660112901651e-01
1.590000000000000080e+00 2.311794693441855120e-01
1.600000000000000089e+00 1.827177863010333581e-01
1.610000000000000098e+00 1.309471146639212269e-01
1.620000000000000107e+00 7.781930460003262662e-02
1.630000000000000115e+00 2.567139334034800741e-02
1.640000000000000124e+00 -2.355214840732582429e-02
1.650000000000000133e+00 -6.766776531307129583e-02
1.660000000000000142e+00 -1.056223505168323584e-01
1.669999999999999929e+00 -1.352637893488787546e-01
1.679999999999999938e+00 -1.570103858703294775e-01
1.689999999999999947e+00 -1.687685654756412024e-01
1.699999999999999956e+00 -1.722692851721685514e-01
1.709999999999999964e+00 -1.665289866530653418e-01
1.719999999999999973e+00 -1.534809220814216946e-01
1.729999999999999982e+00 -1.335895425363844147e-01
1.739999999999999991e+00 -1.087631375008617923e-01
1.750000000000000000e+00 -8.050002310336534794e-02
1.760000000000000009e+00 -5.070824185807248224e-02
1.770000000000000018e+00 -2.117926060587256923e-02
1.780000000000000027e+00 6.062485690771642413e-03
1.790000000000000036e+00 2.975248582343842721e-02
1.800000000000000044e+00 4.764756306869059183e-02
1.810000000000000053e+00 5.956898133642223730e-02
1.820000000000000062e+00 6.338707112113838027e-02
1.830000000000000071e+00 5.982130727426598210e-02
1.840000000000000080e+00 4.770933493404586057e-02
1.850000000000000089e+00 2.805543151809605090e-02
1.860000000000000098e+00 9.895191259662386440e-04
1.870000000000000107e+00 -3.233352257305284472e-02
1.880000000000000115e+00 -7.070450949499554327e-02
1.890000000000000124e+00 -1.128029871654006172e-01
1.900000000000000133e+00 -1.568973827705651969e-01
1.910000000000000142e+00 -2.013880194084645414e-01
1.919999999999999929e+00 -2.447544327580010171e-01
1.929999999999999938e+00 -2.849917317264495931e-01
1.939999999999999947e+00 -3.213197105445005919e-01
1.949999999999999956e+00 -3.518002700604466182e-01
1.959999999999999964e+00 -3.762247400353521121e-01
1.969999999999999973e+00 -3.933704202336443245e-01
1.979999999999999982e+00 -4.033472482772645917e-01
1.989999999999999991e+00 -4.060104310022537022e-01
2.000000000000000000e+00 -4.016617872656091937e-01
2.010000000000000231e+00 -3.912158081660055409e-01
2.020000000000000018e+00 -3.751599062915123017e-01
2.030000000000000249e+00 -3.551043606592036439e-01
2.040000000000000036e+00 -3.318072525418723218e-01
2.049999999999999822e+00 -3.069791148379759638e-01
2.060000000000000053e+00 -2.817711398195449357e-01
2.069999999999999840e+00 -2.574472009185987398e-01
2.080000000000000071e+00 -2.352761200740353664e-01
2.089999999999999858e+00 -2.160092554891593353e-01
2.100000000000000089e+00 -2.005094185518205008e-01
2.109999999999999876e+00 -1.891373582406409570e-01
2.120000000000000107e+00 -1.819822008973624727e-01
2.129999999999999893e+00 -1.790668477797932034e-01
2.140000000000000124e+00 -1.796604930313607240e-01
2.149999999999999911e+00 -1.834025264234858399e-01
2.160000000000000142e+00 -1.890292085422066171e-01
2.169999999999999929e+00 -1.956720937882366340e-01
2.180000000000000160e+00 -2.020257421881590520e-01
2.189999999999999947e+00 -2.067152653929068551e-01
2.200000000000000178e+00 -2.087239086547456879e-01
2.209999999999999964e+00 -2.066373435881460885e-01
2.220000000000000195e+00 -1.996698768598021145e-01
2.229999999999999982e+00 -1.869482296508420682e-01
2.240000000000000213e+00 -1.678587000050560385e-01
2.250000000000000000e+00 -1.424718128097174075e-01
2.260000000000000231e+00 -1.103688125756021599e-01
2.270000000000000018e+00 -7.265274144749497842e-02
2.280000000000000249e+00 -2.924324330591605153e-02
2.290000000000000036e+00 1.804114288461912755e-02
2.300000000000000266e+00 6.856641967909571367e-02
2.310000000000000053e+00 1.204351126631136443e-01
2.319999999999999840e+00 1.721986330615940530e-01
2.330000000000000071e+00 2.221835303045227583e-01
2.339999999999999858e+00 2.686519435923236943e-01
2.350000000000000089e+00 3.100277260402377055e-01
2.359999999999999876e+00 3.450102506161061844e-01
2.370000000000000107e+00 3.719899017200187785e-01
2.379999999999999893e+00 3.907200655121778055e-01
2.390000000000000124e+00 3.995110313227011045e-01
2.399999999999999911e+00 3.995036212644477724e-01
2.410000000000000142e+00 3.890279240538552230e-01
2.419999999999999929e+00 3.702981644735939826e-01
2.430000000000000160e+00 3.426975366309931159e-01
2.439999999999999947e+00 3.084066569217024378e-01
2.450000000000000178e+00 2.681300112437914329e-01
2.459999999999999964e+00 2.238638855748285028e-01
2.470000000000000195e+00 1.771706180616782755e-01
2.479999999999999982e+00 1.299654964374460098e-01
2.490000000000000213e+00 8.394218286439403265e-02
2.500000000000000000e+00 4.109507767982149146e-02
2.510000000000000231e+00 2.492536539302550591e-03
2.520000000000000018e+00 -2.967073158771638131e-02
2.530000000000000249e+00 -5.543556118054995818e-02
2.540000000000000036e+00 -7.271714385567665251e-02
2.550000000000000266e+00 -8.242001984343357013e-02
2.560000000000000053e+00 -8.342853996805360550e-02
2.569999999999999840e+00 -7.685152755207157182e-02
2.580000000000000071e+00 -6.284281804563486562e-02
2.589999999999999858e+00 -4.259905788133840771e-02
2.600000000000000089e+00 -1.731654036777042702e-02
2.609999999999999876e+00 1.169103974620862643e-02
2.620000000000000107e+00 4.272832644830373838e-02
2.629999999999999893e+00 7.424213637784847497e-02
2.640000000000000124e+00 1.047424433710651692e-01
2.649999999999999911e+00 1.323056926186088611e-01
2.660000000000000142e+00 1.561612589598073975e-01
2.669999999999999929e+00 1.744402892578997555e-01
2.680000000000000160e+00 1.869491475932106850e-01
2.689999999999999947e+00 1.925046867227945546e-01
2.700000000000000178e+00 1.912383364997286839e-01
2.709999999999999964e+00 1.830155096437894313e-01
2.720000000000000195e+00 1.681808989178021352e-01
2.729999999999999982e+00 1.476394796788188524e-01
2.740000000000000213e+00 1.219649195391143554e-01
2.750000000000000000e+00 9.274926982120694496e-02
2.760000000000000231e+00 6.091293228410629701e-02
2.770000000000000018e+00 2.814708597444433996e-02
2.780000000000000249e+00 -4.143264453090254353e-03
2.790000000000000036e+00 -3.468542499925272166e-02
2.800000000000000266e+00 -6.190227589205183484e-02
2.810000000000000053e+00 -8.495404523902420901e-02
2.819999999999999840e+00 -1.026686955903933496e-01
2.830000000000000071e+00 -1.144858253944739945e-01
2.839999999999999858e+00 -1.200863482940375260e-01
2.850000000000000089e+00 -1.191032925809306503e-01
2.859999999999999876e+00 -1.122199513560440814e-01
2.870000000000000107e+00 -9.928528179189390068e-02
2.879999999999999893e+00 -8.180018087252349801e-02
2.890000000000000124e+00 -5.995586767097058761e-02
2.899999999999999911e+00 -3.555424931872699923e-02
2.910000000000000142e+00 -9.457569750425477706e-03
2.919999999999999929e+00 1.684536706482540891e-02
2.930000000000000160e+00 4.208652567688431906e-02
2.939999999999999947e+00 6.507649102834366095e-02
2.950000000000000178e+00 8.470837758183398514e-02
2.959999999999999964e+00 9.998892967627154293e-02
2.970000000000000195e+00 1.104653504177696560e-01
2.979999999999999982e+00 1.152817528669397851e-01
2.990000000000000213e+00 1.149000330763607358e-01
3.000000000000000000e+00 1.086380363189578674e-01
3.010000000000000231e+00 9.777056259290223261e-02
3.020000000000000018e+00 8.209580948164868497e-02
3.030000000000000249e+00 6.317468016633692729e-02
3.040000000000000036e+00 4.159785946133469359e-02
3.050000000000000266e+00 1.877375624783721164e-02
3.060000000000000053e+00 -4.184405212122447627e-03
3.070000000000000284e+00 -2.598407438198857208e-02
3.080000000000000071e+00 -4.552489740313357680e-02
3.089999999999999858e+00 -6.155206044171530888e-02
3.100000000000000089e+00 -7.349734045466138621e-02
3.109999999999999876e+00 -8.009572902498897362e-02
3.120000000000000107e+00 -8.166356051017520379e-02
3.129999999999999893e+00 -7.696634353530179551e-02
3.140000000000000124e+00 -6.712506924558964139e-02
3.149999999999999911e+00 -5.156734922733736959e-02
3.160000000000000142e+00 -3.156734609330476976e-02
3.169999999999999929e+00 -7.459814849508222823e-03
3.180000000000000160e+00 1.949486026536524988e-02
3.189999999999999947e+00 4.830454801687124322e-02
3.200000000000000178e+00 7.769303989833256652e-02
3.209999999999999964e+00 1.064912404186025563e-01
3.220000000000000195e+00 1.333229366902500823e-01
3.229999999999999982e+00 1.573831556262340337e-01
3.240000000000000213e+00 1.771246083916043768e-01
3.250000000000000000e+00 1.924904552612004549e-01
3.260000000000000231e+00 2.019621280414379827e-01
3.270000000000000018e+00 2.061165881530066524e-01
3.280000000000000249e+00 2.040940824069461257e-01
3.290000000000000036e+00 1.966409924617619764e-01
3.300000000000000266e+00 1.838053251321494497e-01
3.310000000000000053e+00 1.664155300840463592e-01
3.320000000000000284e+00 1.452912081817122059e-01
3.330000000000000071e+00 1.213566895334778906e-01
3.339999999999999858e+00 9.582498116999639548e-02
3.350000000000000089e+00 6.979746321427157674e-02
3.359999999999999876e+00 4.437125458052434968e-02
3.370000000000000107e+00 2.091340629887154107e-02
3.379999999999999893e+00 1.473271358979114619e-05
3.390000000000000124e+00 -1.698004770097055749e-02
3.399999999999999911e+00 -2.991835860990353646e-02
3.410000000000000142e+00 -3.794184158875943402e-02
3.419999999999999929e+00 -4.115281181606064015e-02
3.430000000000000160e+00 -3.945278132068413823e-02
3.439999999999999947e+00 -3.311916370243966901e-02
3.450000000000000178e+00 -2.280785089756362516e-02
3.459999999999999964e+00 -8.982226600382857418e-03
3.470000000000000195e+00 7.211203200750222232e-03
3.479999999999999982e+00 2.504061769156461920e-02
3.490000000000000213e+00 4.330642241799335240e-02
3.500000000000000000e+00 6.092441806123386622e-02
3.510000000000000231e+00 7.701693584007118787e-02
3.520000000000000018e+00 9.040539079443569992e-02
3.530000000000000249e+00 1.005374784833967527e-01
3.540000000000000036e+00 1.065762455399554831e-01
3.550000000000000266e+00 1.081907409785261842e-01
3.560000000000000053e+00 1.052091307677030657e-01
3.570000000000000284e+00 9.747238630919112523e-02
3.580000000000000071e+00 8.556095006864236630e-02
3.589999999999999858e+00 6.952220948859791361e-02
3.600000000000000089e+00 5.051457003387490458e-02
3.609999999999999876e+00 2.890378721450193727e-02
3.620000000000000107e+00 6.022635748284404199e-03
3.629999999999999893e+00 -1.726029125760492056e-02
3.640000000000000124e+00 -3.985007911553370419e-02
3.649999999999999911e+00 -6.063087713082825070e-02
3.660000000000000142e+00 -7.872025350066677585e-02
3.669999999999999929e+00 -9.321809454490921631e-02
3.680000000000000160e+00 -1.033684267876834456e-01
3.689999999999999947e+00 -1.088766899194162363e-01
3.700000000000000178e+00 -1.090704543423791639e-01
3.709999999999999964e+00 -1.044523956303382989e-01
3.720000000000000195e+00 -9.447297363624185262e-02
3.729999999999999982e+00 -8.032365491433571258e-02
3.740000000000000213e+00 -6.183843926428273657e-02
3.750000000000000000e+00 -4.043376453992192365e-02
3.760000000000000231e+00 -1.661856048004037995e-02
3.770000000000000018e+00 8.364638501393330261e-03
3.780000000000000249e+00 3.355996131811321559e-02
3.790000000000000036e+00 5.785491075946314066e-02
3.800000000000000266e+00 8.030502572478939727e-02
3.810000000000000053e+00 9.985164066565389851e-02
3.820000000000000284e+00 1.159997591003218698e-01
3.830000000000000071e+00 1.276956623299274618e-01
3.839999999999999858e+00 1.351875112712902782e-01
3.850000000000000089e+00 1.374527155613528007e-01
3.859999999999999876e+00 1.354184317811840399e-01
