# [DEFAULT]
# # input and output specifications
# dataformat = QA
# outputtype = gr
# 
# # PDF calculation setup
# mode = xray
# wavelength = 
# composition = Cl4.0Cr1.0Na1.0
# bgscale = 1.0
# rpoly = 0.9
# qmaxinst = 28
# qmin = 0.0
# qmax = 22
# rmin = 0.0
# rmax = 30.0
# rstep = 0.01
# 
# # End of config --------------------------------------------------------------
# 
# #### start data
# #S 1
# #L r(Å)  G(Å$^$)
# 
0.000000000000000000e+00 0.000000000000000000e+00
1.000000000000000021e-02 -5.392069264101130056e-03
2.000000000000000042e-02 -1.075725934806721906e-02
2.999999999999999889e-02 -1.605111225656017174e-02
4.000000000000000083e-02 -2.122666796370634504e-02
5.000000000000000278e-02 -2.619310209229642680e-02
5.999999999999999778e-02 -3.084863697911177996e-02
7.000000000000000666e-02 -3.505571050831377683e-02
8.000000000000000167e-02 -3.862870515852454695e-02
8.999999999999999667e-02 -4.142765445738615798e-02
1.000000000000000056e-01 -4.316156854654422392e-02
1.100000000000000006e-01 -4.377435012436607653e-02
1.199999999999999956e-01 -4.286535678385362119e-02
1.300000000000000044e-01 -4.053563499884086513e-02
1.400000000000000133e-01 -3.639062868831029890e-02
1.499999999999999944e-01 -3.064519830313924137e-02
1.600000000000000033e-01 -2.311269566460796496e-02
1.700000000000000122e-01 -1.405326340767778549e-02
1.799999999999999933e-01 -3.578945901265629878e-03
1.900000000000000022e-01 7.973670038845810659e-03
2.000000000000000111e-01 2.022495885211070960e-02
2.099999999999999922e-01 3.270206003917032478e-02
2.200000000000000011e-01 4.490075484350260215e-02
2.300000000000000100e-01 5.613487390527737569e-02
2.399999999999999911e-01 6.601052564082815488e-02
2.500000000000000000e-01 7.356202160456512540e-02
2.600000000000000089e-01 7.866827108894475229e-02
2.700000000000000178e-01 8.039559352807973402e-02
2.800000000000000266e-01 7.874813690038318104e-02
2.899999999999999800e-01 7.315293139203313255e-02
2.999999999999999889e-01 6.370504140439779694e-02
3.099999999999999978e-01 5.039733446754766921e-02
3.200000000000000067e-01 3.344016058806169311e-02
3.300000000000000155e-01 1.342825144162689867e-02
3.400000000000000244e-01 -9.213615294132459360e-03
3.500000000000000333e-01 -3.346269677736459641e-02
3.599999999999999867e-01 -5.851339243813875879e-02
3.699999999999999956e-01 -8.326318396865983740e-02
3.800000000000000044e-01 -1.064038901797828840e-01
3.900000000000000133e-01 -1.270367728638864824e-01
4.000000000000000222e-01 -1.436531159825257531e-01
4.100000000000000311e-01 -1.554980135583799994e-01
4.199999999999999845e-01 -1.613771576982790945e-01
4.299999999999999933e-01 -1.605849454430895440e-01
4.400000000000000022e-01 -1.527122559171353033e-01
4.500000000000000111e-01 -1.370799359576344856e-01
4.600000000000000200e-01 -1.143374555472258108e-01
4.700000000000000289e-01 -8.393432671023504099e-02
4.799999999999999822e-01 -4.754813620243712735e-02
4.899999999999999911e-01 -5.005294040247758661e-03
5.000000000000000000e-01 4.146613551624602628e-02
5.100000000000000089e-01 9.099157229042093009e-02
5.200000000000000178e-01 1.415421507558183578e-01
5.300000000000000266e-01 1.913849608135470004e-01
5.400000000000000355e-01 2.385754688094012532e-01
5.500000000000000444e-01 2.812279935048990764e-01
5.600000000000000533e-01 3.172918949717770665e-01
5.700000000000000622e-01 3.455318974393111198e-01
5.799999999999999600e-01 3.636357757338719576e-01
5.899999999999999689e-01 3.717128044312335011e-01
5.999999999999999778e-01 3.671687597150909421e-01
6.099999999999999867e-01 3.516491558549090235e-01
6.199999999999999956e-01 3.230637311684245727e-01
6.300000000000000044e-01 2.837870338479966392e-01
6.400000000000000133e-01 2.333253426885144588e-01
6.500000000000000222e-01 1.739941177312649967e-01
6.600000000000000311e-01 1.069781480294978160e-01
6.700000000000000400e-01 3.460138102208659000e-02
6.800000000000000488e-01 -4.087536214048153455e-02
6.900000000000000577e-01 -1.168866292963105513e-01
7.000000000000000666e-01 -1.910373213661745173e-01
7.099999999999999645e-01 -2.602182714717725109e-01
7.199999999999999734e-01 -3.229666993911127215e-01
7.299999999999999822e-01 -3.753883391294145500e-01
7.399999999999999911e-01 -4.174522538067553246e-01
7.500000000000000000e-01 -4.457332480323930590e-01
7.600000000000000089e-01 -4.607460387572590577e-01
7.700000000000000178e-01 -4.606249320643964196e-01
7.800000000000000266e-01 -4.460962148317090814e-01
7.900000000000000355e-01 -4.173071308575954652e-01
8.000000000000000444e-01 -3.751125493198766425e-01
8.100000000000000533e-01 -3.215436387704683763e-01
8.200000000000000622e-01 -2.577390406998964489e-01
8.300000000000000711e-01 -1.869343301106567434e-01
8.399999999999999689e-01 -1.108929118462356617e-01
8.499999999999999778e-01 -3.298373245982402086e-02
8.599999999999999867e-01 4.403188945774668545e-02
8.699999999999999956e-01 1.175642817155103242e-01
8.800000000000000044e-01 1.844174794824945673e-01
8.900000000000000133e-01 2.427088692757803090e-01
9.000000000000000222e-01 2.899180472075529313e-01
9.100000000000000311e-01 3.245286147306754576e-01
9.200000000000000400e-01 3.456352702938285115e-01
9.300000000000000488e-01 3.518893903132543355e-01
9.400000000000000577e-01 3.444521425604284426e-01
9.500000000000000666e-01 3.221758252310823467e-01
9.599999999999999645e-01 2.881351817291593620e-01
9.699999999999999734e-01 2.416635186307082572e-01
9.799999999999999822e-01 1.867778763659376229e-01
9.899999999999999911e-01 1.244613461449075587e-01
1.000000000000000000e+00 5.815081761980927383e-02
1.010000000000000009e+00 -9.810661724122163307e-03
1.020000000000000018e+00 -7.647064526699338949e-02
1.030000000000000027e+00 -1.392314903006124926e-01
1.040000000000000036e+00 -1.953633546939427534e-01
1.050000000000000044e+00 -2.431513068992023907e-01
1.060000000000000053e+00 -2.798665730246646111e-01
1.070000000000000062e+00 -3.055370619692384659e-01
1.080000000000000071e+00 -3.173848727224929944e-01
1.090000000000000080e+00 -3.173380693898824600e-01
1.100000000000000089e+00 -3.033696570852290053e-01
1.110000000000000098e+00 -2.783046102269112754e-01
1.120000000000000107e+00 -2.419545791331778606e-01
1.130000000000000115e+00 -1.970522440971070599e-01
1.140000000000000124e+00 -1.451455161066861899e-01
1.150000000000000133e+00 -8.888148707550916350e-02
1.159999999999999920e+00 -3.070801563142553509e-02
1.169999999999999929e+00 2.663406205921951125e-02
1.179999999999999938e+00 8.088682924725526524e-02
1.189999999999999947e+00 1.289933506845861444e-01
1.199999999999999956e+00 1.699403435633231318e-01
1.209999999999999964e+00 2.002329857492226028e-01
1.219999999999999973e+00 2.204491662542872044e-01
1.229999999999999982e+00 2.279291623119616694e-01
1.239999999999999991e+00 2.238371453796992316e-01
1.250000000000000000e+00 2.072358267937194631e-01
1.260000000000000009e+00 1.795354499259058934e-01
1.270000000000000018e+00 1.416249443576474421e-01
1.280000000000000027e+00 9.510640558747673889e-02
1.290000000000000036e+00 4.221680917410391282e-02
1.300000000000000044e+00 -1.510320791308254230e-02
1.310000000000000053e+00 -7.417214464209154201e-02
1.320000000000000062e+00 -1.324559556674230476e-01
1.330000000000000071e+00 -1.878369291984438860e-01
1.340000000000000080e+00 -2.372097092906203519e-01
1.350000000000000089e+00 -2.794660825435176799e-01
1.360000000000000098e+00 -3.118488032970425650e-01
1.370000000000000107e+00 -3.338551072511630191e-01
1.380000000000000115e+00 -3.439955298579163712e-01
1.390000000000000124e+00 -3.421011264532277107e-01
1.400000000000000133e+00 -3.284157491014751962e-01
1.409999999999999920e+00 -3.030131613706906202e-01
1.419999999999999929e+00 -2.677930661808182733e-01
1.429999999999999938e+00 -2.231880765258986155e-01
1.439999999999999947e+00 -1.721602619852637961e-01
1.449999999999999956e+00 -1.157781939184725217e-01
1.459999999999999964e+00 -5.709697477259913917e-02
1.469999999999999973e+00 1.816405293733867193e-03
1.479999999999999982e+00 5.862694961273366007e-02
1.489999999999999991e+00 1.109186936646874427e-01
1.500000000000000000e+00 1.568694692232803223e-01
1.510000000000000009e+00 1.946909130879166394e-01
1.520000000000000018e+00 2.228303603989220949e-01
1.530000000000000027e+00 2.408637259855393176e-01
1.540000000000000036e+00 2.473800108145940146e-01
1.550000000000000044e+00 2.436229695142683171e-01
1.560000000000000053e+00 2.283773838066973927e-01
1.570000000000000062e+00 2.042256270824161779e-01
1.580000000000000071e+00 1.707668541070598289e-01
1.590000000000000080e+00 1.308711838201341848e-01
1.600000000000000089e+00 8.547053038899266042e-02
1.610000000000000098e+00 3.701717015530289062e-02
1.620000000000000107e+00 -1.269998670895833293e-02
1.630000000000000115e+00 -6.154034747239302272e-02
1.640000000000000124e+00 -1.077244678583238052e-01
1.650000000000000133e+00 -1.492553627977132036e-01
1.660000000000000142e+00 -1.851666852297706445e-01
1.669999999999999929e+00 -2.134871696652195783e-01
1.679999999999999938e+00 -2.345909487512450875e-01
1.689999999999999947e+00 -2.465508717857307075e-01
1.699999999999999956e+00 -2.509368581787781438e-01
1.709999999999999964e+00 -2.468246756355177984e-01
1.719999999999999973e+00 -2.359649876313657524e-01
1.729999999999999982e+00 -2.187500852790192907e-01
1.739999999999999991e+00 -1.969018223141917601e-01
1.750000000000000000e+00 -1.717602353786836789e-01
1.760000000000000009e+00 -1.450386470189835575e-01
1.770000000000000018e+00 -1.183595813173074496e-01
1.780000000000000027e+00 -9.353217919313733253e-02
1.790000000000000036e+00 -7.172203453857767252e-02
1.800000000000000044e+00 -5.492616413303393064e-02
1.810000000000000053e+00 -4.334393184556654954e-02
1.820000000000000062e+00 -3.886793051748314159e-02
1.830000000000000071e+00 -4.088444047538715431e-02
1.840000000000000080e+00 -5.042196946606482960e-02
1.850000000000000089e+00 -6.659217820237192664e-02
1.860000000000000098e+00 -8.926448729997631115e-02
1.870000000000000107e+00 -1.173932345575220415e-01
1.880000000000000115e+00 -1.498769804416681395e-01
1.890000000000000124e+00 -1.854933910387755180e-01
1.900000000000000133e+00 -2.226739810381272999e-01
1.910000000000000142e+00 -2.599088321554848258e-01
1.919999999999999929e+00 -2.958334375792323057e-01
1.929999999999999938e+00 -3.285263668055101172e-01
1.939999999999999947e+00 -3.573070375767665730e-01
1.949999999999999956e+00 -3.803033462627340433e-01
1.959999999999999964e+00 -3.973363422777087539e-01
1.969999999999999973e+00 -4.072028222668787056e-01
1.979999999999999982e+00 -4.099903025480218788e-01
1.989999999999999991e+00 -4.055186504192375696e-01
2.000000000000000000e+00 -3.940277658044452624e-01
2.010000000000000231e+00 -3.763658816603579482e-01
2.020000000000000018e+00 -3.529274038581546313e-01
2.030000000000000249e+00 -3.252706644018645288e-01
2.040000000000000036e+00 -2.940402068359603271e-01
2.049999999999999822e+00 -2.609506946808337058e-01
2.060000000000000053e+00 -2.270568773694358056e-01
2.069999999999999840e+00 -1.936868046470611171e-01
2.080000000000000071e+00 -1.620948236799830688e-01
2.089999999999999858e+00 -1.331386766043591574e-01
2.100000000000000089e+00 -1.077729181426597266e-01
2.109999999999999876e+00 -8.651847414596275376e-02
2.120000000000000107e+00 -6.963635317164772187e-02
2.129999999999999893e+00 -5.738679243289115939e-02
2.140000000000000124e+00 -4.922108500391124408e-02
2.149999999999999911e+00 -4.512343311966606624e-02
2.160000000000000142e+00 -4.392204910878959312e-02
2.169999999999999929e+00 -4.522702334201884888e-02
2.180000000000000160e+00 -4.768360470839985016e-02
2.189999999999999947e+00 -5.037123187194971624e-02
2.200000000000000178e+00 -5.218951548143061642e-02
2.209999999999999964e+00 -5.200387058633271914e-02
2.220000000000000195e+00 -4.894765861010937080e-02
2.229999999999999982e+00 -4.217550053653322528e-02
2.240000000000000213e+00 -3.099535370458375225e-02
2.250000000000000000e+00 -1.524421094453484553e-02
2.260000000000000231e+00 5.601352950026451151e-03
2.270000000000000018e+00 3.087029415302645213e-02
2.280000000000000249e+00 6.083000277291060465e-02
2.290000000000000036e+00 9.416167417271366358e-02
2.300000000000000266e+00 1.305787635082393539e-01
2.310000000000000053e+00 1.686110673049761866e-01
2.319999999999999840e+00 2.072779004713471429e-01
2.330000000000000071e+00 2.452474698948223508e-01
2.339999999999999858e+00 2.812160719878771253e-01
2.350000000000000089e+00 3.139160981587404975e-01
2.359999999999999876e+00 3.422857334015302899e-01
2.370000000000000107e+00 3.650290978003460918e-01
2.379999999999999893e+00 3.818321832364161561e-01
2.390000000000000124e+00 3.913312392177814569e-01
2.399999999999999911e+00 3.942618001819989115e-01
2.410000000000000142e+00 3.892588667557790316e-01
2.419999999999999929e+00 3.779095154269075385e-01
2.430000000000000160e+00 3.596394258365818164e-01
2.439999999999999947e+00 3.360531361167993780e-01
2.450000000000000178e+00 3.076010267550932098e-01
2.459999999999999964e+00 2.757701872913176366e-01
2.470000000000000195e+00 2.417071275805157959e-01
2.479999999999999982e+00 2.068425846885244002e-01
2.490000000000000213e+00 1.724736125595349445e-01
2.500000000000000000e+00 1.400836192629359434e-01
2.510000000000000231e+00 1.105382195951229163e-01
2.520000000000000018e+00 8.545694182841628850e-02
2.530000000000000249e+00 6.488788052774531467e-02
2.540000000000000036e+00 5.035893206813295275e-02
2.550000000000000266e+00 4.125297721143103558e-02
2.560000000000000053e+00 3.837412989359442056e-02
2.569999999999999840e+00 4.091344608820744050e-02
2.580000000000000071e+00 4.872551837960230336e-02
2.589999999999999858e+00 6.089890396085603785e-02
2.600000000000000089e+00 7.651369864129412002e-02
2.609999999999999876e+00 9.453615129864380295e-02
2.620000000000000107e+00 1.136950146934612438e-01
2.629999999999999893e+00 1.327460435885728374e-01
2.640000000000000124e+00 1.506148727163073575e-01
2.649999999999999911e+00 1.657568697044206063e-01
2.660000000000000142e+00 1.776806591374880118e-01
2.669999999999999929e+00 1.849193282475256328e-01
2.680000000000000160e+00 1.874175928618857234e-01
2.689999999999999947e+00 1.842929103203850283e-01
2.700000000000000178e+00 1.757360740223763151e-01
2.709999999999999964e+00 1.617184449413420211e-01
2.720000000000000195e+00 1.426050603985260234e-01
2.729999999999999982e+00 1.191879810095660824e-01
2.740000000000000213e+00 9.203622311185460925e-02
2.750000000000000000e+00 6.245300195984593294e-02
2.760000000000000231e+00 3.131994611647904991e-02
2.770000000000000018e+00 -3.655543636644012495e-05
2.780000000000000249e+00 -3.032684872104524088e-02
2.790000000000000036e+00 -5.859283115269522946e-02
2.800000000000000266e+00 -8.344728445381126292e-02
2.810000000000000053e+00 -1.042649304635148017e-01
2.819999999999999840e+00 -1.200539933009324017e-01
2.830000000000000071e+00 -1.303924174961086646e-01
2.839999999999999858e+00 -1.350496543556923557e-01
2.850000000000000089e+00 -1.337389111508273942e-01
2.859999999999999876e+00 -1.271034081336196164e-01
2.870000000000000107e+00 -1.150178719266639477e-01
2.879999999999999893e+00 -9.883048929196916466e-02
2.890000000000000124e+00 -7.869263801176695772e-02
2.899999999999999911e+00 -5.620503377559112751e-02
2.910000000000000142e+00 -3.209791970363248814e-02
2.919999999999999929e+00 -7.684351594797197461e-03
2.930000000000000160e+00 1.594660815784498809e-02
2.939999999999999947e+00 3.775167833977539217e-02
2.950000000000000178e+00 5.676932943162491668e-02
2.959999999999999964e+00 7.212974639743996441e-02
2.970000000000000195e+00 8.342337274855493590e-02
2.979999999999999982e+00 8.989612294241496049e-02
2.990000000000000213e+00 9.191837457410036161e-02
3.000000000000000000e+00 8.887563147109370232e-02
3.010000000000000231e+00 8.183809392871654875e-02
3.020000000000000018e+00 7.058958808778821592e-02
3.030000000000000249e+00 5.645187625709126300e-02
3.040000000000000036e+00 3.988389868762150930e-02
3.050000000000000266e+00 2.207678736869290656e-02
3.060000000000000053e+00 3.946118101706573914e-03
3.070000000000000284e+00 -1.342059143985449912e-02
3.080000000000000071e+00 -2.909819183865525877e-02
3.089999999999999858e+00 -4.203882741044510929e-02
3.100000000000000089e+00 -5.174431000556177496e-02
3.109999999999999876e+00 -5.716590474405230937e-02
3.120000000000000107e+00 -5.853152359636885210e-02
3.129999999999999893e+00 -5.482385529011832986e-02
3.140000000000000124e+00 -4.693922518501669749e-02
3.149999999999999911e+00 -3.440648120895873491e-02
3.160000000000000142e+00 -1.826089991421347286e-02
3.169999999999999929e+00 1.220660826386029199e-03
3.180000000000000160e+00 2.300399240499810538e-02
3.189999999999999947e+00 4.626941660132675993e-02
3.200000000000000178e+00 6.996240171672100938e-02
3.209999999999999964e+00 9.311856449128332047e-02
3.220000000000000195e+00 1.145962767601176879e-01
3.229999999999999982e+00 1.337361765055888330e-01
3.240000000000000213e+00 1.492539585371782107e-01
3.250000000000000000e+00 1.611142432824135828e-01
3.260000000000000231e+00 1.680608365473202082e-01
3.270000000000000018e+00 1.705861301313324196e-01
3.280000000000000249e+00 1.679888546486422718e-01
3.290000000000000036e+00 1.609039069837174263e-01
3.300000000000000266e+00 1.493903332808970141e-01
3.310000000000000053e+00 1.341562171143196314e-01
3.320000000000000284e+00 1.159026627210222871e-01
3.330000000000000071e+00 9.542611860570474058e-02
3.339999999999999858e+00 7.374770597501190128e-02
3.350000000000000089e+00 5.182323735135683368e-02
3.359999999999999876e+00 3.056143058301693388e-02
3.370000000000000107e+00 1.115347098724654706e-02
3.379999999999999893e+00 -5.930642711473162361e-03
3.390000000000000124e+00 -1.952387508363551127e-02
3.399999999999999911e+00 -2.952161461840967574e-02
3.410000000000000142e+00 -3.518353362896873421e-02
3.419999999999999929e+00 -3.661298153996832977e-02
3.430000000000000160e+00 -3.372990793885832089e-02
3.439999999999999947e+00 -2.678051120145225755e-02
3.450000000000000178e+00 -1.633943807312137481e-02
3.459999999999999964e+00 -2.809296368133420638e-03
3.470000000000000195e+00 1.280772747623076802e-02
3.479999999999999982e+00 2.987643368937719854e-02
3.490000000000000213e+00 4.734494596982521952e-02
3.500000000000000000e+00 6.426621959008005369e-02
3.510000000000000231e+00 7.986402216842250490e-02
3.520000000000000018e+00 9.309828391379684764e-02
3.530000000000000249e+00 1.034700751451668732e-01
3.540000000000000036e+00 1.102256576024357587e-01
3.550000000000000266e+00 1.130487537809895665e-01
3.560000000000000053e+00 1.117595549444402869e-01
3.570000000000000284e+00 1.061760763636796639e-01
3.580000000000000071e+00 9.677988621910958711e-02
3.589999999999999858e+00 8.354740339865315835e-02
3.600000000000000089e+00 6.748512345286072911e-02
3.609999999999999876e+00 4.882027292802508522e-02
3.620000000000000107e+00 2.873792734099524585e-02
3.629999999999999893e+00 7.906459158877627430e-03
3.640000000000000124e+00 -1.269435324161522632e-02
3.649999999999999911e+00 -3.214956826971623882e-02
3.660000000000000142e+00 -4.967291290736952636e-02
3.669999999999999929e+00 -6.449319558784737116e-02
3.680000000000000160e+00 -7.594408771025630556e-02
3.689999999999999947e+00 -8.373533023336089676e-02
3.700000000000000178e+00 -8.728031198055571926e-02
3.709999999999999964e+00 -8.694424342685228013e-02
3.720000000000000195e+00 -8.224755227709561189e-02
3.729999999999999982e+00 -7.413504620006397539e-02
3.740000000000000213e+00 -6.244538212059354276e-02
3.750000000000000000e+00 -4.832677323701080330e-02
3.760000000000000231e+00 -3.217993341400136181e-02
3.770000000000000018e+00 -1.502297855435993403e-02
3.780000000000000249e+00 2.364347143666283881e-03
3.790000000000000036e+00 1.906427727352965479e-02
3.800000000000000266e+00 3.429567476295254658e-02
3.810000000000000053e+00 4.718262623564830477e-02
3.820000000000000284e+00 5.730781447649630628e-02
3.830000000000000071e+00 6.379988571156358645e-02
3.839999999999999858e+00 6.685316367949650784e-02
3.850000000000000089e+00 6.562527281463234607e-02
3.859999999999999876e+00 6.087435626305478381e-02
