# [DEFAULT]
# # input and output specifications
# dataformat = QA
# outputtype = gr
# 
# # PDF calculation setup
# mode = xray
# wavelength = 
# composition = Cl4.0Cr1.0Na1.0
# bgscale = 1.0
# rpoly = 0.9
# qmaxinst = 28
# qmin = 0.0
# qmax = 22
# rmin = 0.0
# rmax = 30.0
# rstep = 0.01
# 
# # End of config --------------------------------------------------------------
# 
# #### start data
# #S 1
# #L r(Å)  G(Å$^$)
# 
0.000000000000000000e+00 0.000000000000000000e+00
1.000000000000000021e-02 -2.216256185918677370e-03
2.000000000000000042e-02 -4.587531144651608127e-03
2.999999999999999889e-02 -7.290309487740582323e-03
4.000000000000000083e-02 -1.039057536706976259e-02
5.000000000000000278e-02 -1.397367762527048501e-02
5.999999999999999778e-02 -1.799677301444309319e-02
7.000000000000000666e-02 -2.238040631550103354e-02
8.000000000000000167e-02 -2.695245934944817331e-02
8.999999999999999667e-02 -3.148655842837382729e-02
1.000000000000000056e-01 -3.565478638404474820e-02
1.100000000000000006e-01 -3.919977677207153732e-02
1.199999999999999956e-01 -4.161546189446670152e-02
1.300000000000000044e-01 -4.276437776793667878e-02
1.400000000000000133e-01 -4.205696227663368453e-02
1.499999999999999944e-01 -3.951298818169526189e-02
1.600000000000000033e-01 -3.471292944063409519e-02
1.700000000000000122e-01 -2.777660016784456315e-02
1.799999999999999933e-01 -1.864128286912696691e-02
1.900000000000000022e-01 -7.547525123208423739e-03
2.000000000000000111e-01 5.163020028404276263e-03
2.099999999999999922e-01 1.906984010983497901e-02
2.200000000000000011e-01 3.354158774977838292e-02
2.300000000000000100e-01 4.788414737593234966e-02
2.399999999999999911e-01 6.144610674650784199e-02
2.500000000000000000e-01 7.316089792573268746e-02
2.600000000000000089e-01 8.261051427154290916e-02
2.700000000000000178e-01 8.863268038209561051e-02
2.800000000000000266e-01 9.098298518983150007e-02
2.899999999999999800e-01 8.881153877389322271e-02
2.999999999999999889e-01 8.200466498778702373e-02
3.099999999999999978e-01 7.035285202270118166e-02
3.200000000000000067e-01 5.388898231624799501e-02
3.300000000000000155e-01 3.317985630392292912e-02
3.400000000000000244e-01 8.511624937579918837e-03
3.500000000000000333e-01 -1.890430085646776365e-02
3.599999999999999867e-01 -4.832835360923366796e-02
3.699999999999999956e-01 -7.830081452130682740e-02
3.800000000000000044e-01 -1.074116333554731989e-01
3.900000000000000133e-01 -1.343669618058176696e-01
4.000000000000000222e-01 -1.573609410240362216e-01
4.100000000000000311e-01 -1.752654355046300572e-01
4.199999999999999845e-01 -1.865048902637068129e-01
4.299999999999999933e-01 -1.900026050176064074e-01
4.400000000000000022e-01 -1.850507815460608330e-01
4.500000000000000111e-01 -1.705822717279863732e-01
4.600000000000000200e-01 -1.471845464209285970e-01
4.700000000000000289e-01 -1.139064467606018816e-01
4.799999999999999822e-01 -7.269305856136640265e-02
4.899999999999999911e-01 -2.300316841511649765e-02
5.000000000000000000e-01 3.240379667093726962e-02
5.100000000000000089e-01 9.271395136912168045e-02
5.200000000000000178e-01 1.553539545324716387e-01
5.300000000000000266e-01 2.182960722164909717e-01
5.400000000000000355e-01 2.790342345540731683e-01
5.500000000000000444e-01 3.351696488530904183e-01
5.600000000000000533e-01 3.840278044172083516e-01
5.700000000000000622e-01 4.238616120163929413e-01
5.799999999999999600e-01 4.516132710566737596e-01
5.899999999999999689e-01 4.671292028977554467e-01
5.999999999999999778e-01 4.669051551402670919e-01
6.099999999999999867e-01 4.527259076437417651e-01
6.199999999999999956e-01 4.216082718416152564e-01
6.300000000000000044e-01 3.763291867970158799e-01
6.400000000000000133e-01 3.158879858301288368e-01
6.500000000000000222e-01 2.430351513485650705e-01
6.600000000000000311e-01 1.589812229354295448e-01
6.700000000000000400e-01 6.650378732987502484e-02
6.800000000000000488e-01 -3.163154162121766672e-02
6.900000000000000577e-01 -1.323400861451669852e-01
7.000000000000000666e-01 -2.324365529387243945e-01
7.099999999999999645e-01 -3.281327013625888744e-01
7.199999999999999734e-01 -4.171846327261892196e-01
7.299999999999999822e-01 -4.947477034602992263e-01
7.399999999999999911e-01 -5.602642670553422688e-01
7.500000000000000000e-01 -6.092558131841745439e-01
7.600000000000000089e-01 -6.419130876909949768e-01
7.700000000000000178e-01 -6.555304854853615248e-01
7.800000000000000266e-01 -6.505979322616396443e-01
7.900000000000000355e-01 -6.268983324604995300e-01
8.000000000000000444e-01 -5.850659370182965668e-01
8.100000000000000533e-01 -5.273725569411219505e-01
8.200000000000000622e-01 -4.547441368058836031e-01
8.300000000000000711e-01 -3.712296085122497868e-01
8.399999999999999689e-01 -2.784495657708281335e-01
8.499999999999999778e-01 -1.809299842457667840e-01
8.599999999999999867e-01 -8.159676050472640385e-02
8.699999999999999956e-01 1.585835495850971763e-02
8.800000000000000044e-01 1.076711253686856995e-01
8.900000000000000133e-01 1.910765110430460711e-01
9.000000000000000222e-01 2.628156718046606444e-01
9.100000000000000311e-01 3.206233303051450600e-01
9.200000000000000400e-01 3.630029462426498377e-01
9.300000000000000488e-01 3.879046432848675674e-01
9.400000000000000577e-01 3.963013935734282511e-01
9.500000000000000666e-01 3.863422350904451852e-01
9.599999999999999645e-01 3.614520018417619052e-01
9.699999999999999734e-01 3.202687469444584489e-01
9.799999999999999822e-01 2.675752475140631970e-01
9.899999999999999911e-01 2.040607872998916050e-01
1.000000000000000000e+00 1.339078548222053522e-01
1.010000000000000009e+00 5.965425179138925116e-02
1.020000000000000018e+00 -1.506896732021356135e-02
1.030000000000000027e+00 -8.714505257753468737e-02
1.040000000000000036e+00 -1.532064151197787549e-01
1.050000000000000044e+00 -2.109417641195692195e-01
1.060000000000000053e+00 -2.569727805598865933e-01
1.070000000000000062e+00 -2.909108664122331822e-01
1.080000000000000071e+00 -3.092715453167431128e-01
1.090000000000000080e+00 -3.139111090789252767e-01
1.100000000000000089e+00 -3.021384263988601271e-01
1.110000000000000098e+00 -2.769804402524737585e-01
1.120000000000000107e+00 -2.378792201528714401e-01
1.130000000000000115e+00 -1.878542639541070092e-01
1.140000000000000124e+00 -1.284752964245274021e-01
1.150000000000000133e+00 -6.271563276488163752e-02
1.159999999999999920e+00 6.623304476981263511e-03
1.169999999999999929e+00 7.643174324457539803e-02
1.179999999999999938e+00 1.439261271243236218e-01
1.189999999999999947e+00 2.056009516271433135e-01
1.199999999999999956e+00 2.599580093372572676e-01
1.209999999999999964e+00 3.029289237992335848e-01
1.219999999999999973e+00 3.348070282628253791e-01
1.229999999999999982e+00 3.523541433613422980e-01
1.239999999999999991e+00 3.566128366641187486e-01
1.250000000000000000e+00 3.462476888899145844e-01
1.260000000000000009e+00 3.226353912616825026e-01
1.270000000000000018e+00 2.865664855305727343e-01
1.280000000000000027e+00 2.396541716133455679e-01
1.290000000000000036e+00 1.843555278117890439e-01
1.300000000000000044e+00 1.226601862223802297e-01
1.310000000000000053e+00 5.771035978697511282e-02
1.320000000000000062e+00 -7.847668011205854305e-03
1.330000000000000071e+00 -7.135193668596344352e-02
1.340000000000000080e+00 -1.294541674522080854e-01
1.350000000000000089e+00 -1.805959927971332313e-01
1.360000000000000098e+00 -2.216769709970488056e-01
1.370000000000000107e+00 -2.518799062205833161e-01
1.380000000000000115e+00 -2.694097692692650758e-01
1.390000000000000124e+00 -2.738750730368715858e-01
1.400000000000000133e+00 -2.653772580388285562e-01
1.409999999999999920e+00 -2.438262365520237340e-01
1.419999999999999929e+00 -2.112006781215683138e-01
1.429999999999999938e+00 -1.678174765306017502e-01
1.439999999999999947e+00 -1.169199375022286214e-01
1.449999999999999956e+00 -5.952249265420495039e-02
1.459999999999999964e+00 9.427380687506026896e-04
1.469999999999999973e+00 6.231050818249794093e-02
1.479999999999999982e+00 1.219294470033936567e-01
1.489999999999999991e+00 1.771753517706400882e-01
1.500000000000000000e+00 2.259752425393421749e-01
1.510000000000000009e+00 2.663332368949774542e-01
1.520000000000000018e+00 2.964964812588901100e-01
1.530000000000000027e+00 3.159315823787733901e-01
1.540000000000000036e+00 3.230661934982253514e-01
1.550000000000000044e+00 3.191864505309648381e-01
1.560000000000000053e+00 3.029563171252027676e-01
1.570000000000000062e+00 2.771379640481705375e-01
1.580000000000000071e+00 2.412972447886842509e-01
1.590000000000000080e+00 1.985331714075435905e-01
1.600000000000000089e+00 1.498683839596136047e-01
1.610000000000000098e+00 9.796416928894903509e-02
1.620000000000000107e+00 4.477367643878200215e-02
1.630000000000000115e+00 -7.376145243548400815e-03
1.640000000000000124e+00 -5.655428374439880335e-02
1.650000000000000133e+00 -1.005956669502272999e-01
1.660000000000000142e+00 -1.384713428377995492e-01
1.669999999999999929e+00 -1.680600353833173188e-01
1.679999999999999938e+00 -1.898036800734188845e-01
1.689999999999999947e+00 -2.016550194967219323e-01
1.699999999999999956e+00 -2.053571707496116838e-01
1.709999999999999964e+00 -1.999743349629856670e-01
1.719999999999999973e+00 -1.874426605096324305e-01
1.729999999999999982e+00 -1.682564134586025939e-01
1.739999999999999991e+00 -1.443179589284557252e-01
1.750000000000000000e+00 -1.171236832045772364e-01
1.760000000000000009e+00 -8.856353665163005373e-02
1.770000000000000018e+00 -6.039248986098952332e-02
1.780000000000000027e+00 -3.459712445315067664e-02
1.790000000000000036e+00 -1.238248130855004389e-02
1.800000000000000044e+00 4.077085072717662878e-03
1.810000000000000053e+00 1.466226041060994176e-02
1.820000000000000062e+00 1.734705987525820073e-02
1.830000000000000071e+00 1.289475571258507508e-02
1.840000000000000080e+00 2.527735714828241442e-04
1.850000000000000089e+00 -1.953934624261480235e-02
1.860000000000000098e+00 -4.627442563567008699e-02
1.870000000000000107e+00 -7.876783229997733060e-02
1.880000000000000115e+00 -1.157976556426876802e-01
1.890000000000000124e+00 -1.560228435312617234e-01
1.900000000000000133e+00 -1.977784635249311695e-01
1.910000000000000142e+00 -2.394674293099679219e-01
1.919999999999999929e+00 -2.797044607436190988e-01
1.929999999999999938e+00 -3.165356998743248940e-01
1.939999999999999947e+00 -3.493456298342036970e-01
1.949999999999999956e+00 -3.763278335916380724e-01
1.959999999999999964e+00 -3.974264962003211665e-01
1.969999999999999973e+00 -4.116012707069313104e-01
1.979999999999999982e+00 -4.191136887590507509e-01
1.989999999999999991e+00 -4.199856652700986182e-01
2.000000000000000000e+00 -4.146843089680138927e-01
2.010000000000000231e+00 -4.042042424742944284e-01
2.020000000000000018e+00 -3.892194364797388340e-01
2.030000000000000249e+00 -3.712782288492465499e-01
2.040000000000000036e+00 -3.513375302584397786e-01
2.049999999999999822e+00 -3.308970963000094634e-01
2.060000000000000053e+00 -3.112422431236766540e-01
2.069999999999999840e+00 -2.933574118137551312e-01
2.080000000000000071e+00 -2.784789161492137732e-01
2.089999999999999858e+00 -2.670850477056802008e-01
2.100000000000000089e+00 -2.598480970856272276e-01
2.109999999999999876e+00 -2.568437375778335197e-01
2.120000000000000107e+00 -2.578927113956621664e-01
2.129999999999999893e+00 -2.626877808704006778e-01
2.140000000000000124e+00 -2.702643179523106509e-01
2.149999999999999911e+00 -2.798506718686422090e-01
2.160000000000000142e+00 -2.901043142989657153e-01
2.169999999999999929e+00 -2.996416376592578312e-01
2.180000000000000160e+00 -3.072730822253431637e-01
2.189999999999999947e+00 -3.111887652927364800e-01
2.200000000000000178e+00 -3.105389310911634282e-01
2.209999999999999964e+00 -3.037019132147046885e-01
2.220000000000000195e+00 -2.900658017482428130e-01
2.229999999999999982e+00 -2.688238158165414671e-01
2.240000000000000213e+00 -2.395467972213227437e-01
2.250000000000000000e+00 -2.026135439461106968e-01
2.260000000000000231e+00 -1.578370299188656956e-01
2.270000000000000018e+00 -1.067677179587748493e-01
2.280000000000000249e+00 -4.966563827824151817e-02
2.290000000000000036e+00 1.121277567938415952e-02
2.300000000000000266e+00 7.473578664644833780e-02
2.310000000000000053e+00 1.386827298482055104e-01
2.319999999999999840e+00 2.010548176164362044e-01
2.330000000000000071e+00 2.599304868599737195e-01
2.339999999999999858e+00 3.131412994494049418e-01
2.350000000000000089e+00 3.588819634036428119e-01
2.359999999999999876e+00 3.956879660419088673e-01
2.370000000000000107e+00 4.217071795010339796e-01
2.379999999999999893e+00 4.368774264378723071e-01
2.390000000000000124e+00 4.392596595890786437e-01
2.399999999999999911e+00 4.305218388781208994e-01
2.410000000000000142e+00 4.087891034760847697e-01
2.419999999999999929e+00 3.769974704636183671e-01
2.430000000000000160e+00 3.346106034332953505e-01
2.439999999999999947e+00 2.844508854448818957e-01
2.450000000000000178e+00 2.275948678922488644e-01
2.459999999999999964e+00 1.666077460458771087e-01
2.470000000000000195e+00 1.035505238241946069e-01
2.479999999999999982e+00 4.089766493416776422e-02
2.490000000000000213e+00 -1.923536575167496959e-02
2.500000000000000000e+00 -7.423718870469003805e-02
2.510000000000000231e+00 -1.228838102912528096e-01
2.520000000000000018e+00 -1.622576108973032283e-01
2.530000000000000249e+00 -1.926042506505702134e-01
2.540000000000000036e+00 -2.111219852367981209e-01
2.550000000000000266e+00 -2.191374204671916459e-01
2.560000000000000053e+00 -2.151209510417815829e-01
2.569999999999999840e+00 -2.005775325101453732e-01
2.580000000000000071e+00 -1.756465631101635505e-01
2.589999999999999858e+00 -1.418709367040195679e-01
2.600000000000000089e+00 -1.007767722977387370e-01
2.609999999999999876e+00 -5.399504091345345980e-02
2.620000000000000107e+00 -3.762009913313497933e-03
2.629999999999999893e+00 4.802701477566712757e-02
2.640000000000000124e+00 9.931040195737553256e-02
2.649999999999999911e+00 1.477301080621588047e-01
2.660000000000000142e+00 1.920775205196538771e-01
2.669999999999999929e+00 2.299710765678469326e-01
2.680000000000000160e+00 2.609472240918002672e-01
2.689999999999999947e+00 2.833749507625218378e-01
2.700000000000000178e+00 2.972022621305883683e-01
2.709999999999999964e+00 3.020502183245835082e-01
2.720000000000000195e+00 2.981026495793023257e-01
2.729999999999999982e+00 2.862962608962348332e-01
2.740000000000000213e+00 2.670320765487008141e-01
2.750000000000000000e+00 2.422090635293956684e-01
2.760000000000000231e+00 2.125600881494980887e-01
2.770000000000000018e+00 1.802715572048104731e-01
2.780000000000000249e+00 1.466311062972081025e-01
2.790000000000000036e+00 1.134069334427332404e-01
2.800000000000000266e+00 8.222925499415775774e-02
2.810000000000000053e+00 5.429802140964875429e-02
2.819999999999999840e+00 3.095267967232119208e-02
2.830000000000000071e+00 1.299876234956582645e-02
2.839999999999999858e+00 9.365236748338561998e-04
2.850000000000000089e+00 -4.712269218503576176e-03
2.859999999999999876e+00 -4.509675651232305377e-03
2.870000000000000107e+00 1.777113100438839190e-03
2.879999999999999893e+00 1.267786525616625137e-02
2.890000000000000124e+00 2.801419786582808741e-02
2.899999999999999911e+00 4.593960690683653730e-02
2.910000000000000142e+00 6.553007844350886013e-02
2.919999999999999929e+00 8.521637909244637876e-02
2.930000000000000160e+00 1.036186513217072502e-01
2.939999999999999947e+00 1.194516425379908847e-01
2.950000000000000178e+00 1.315000883547405020e-01
2.959999999999999964e+00 1.386689443928003085e-01
2.970000000000000195e+00 1.404593780542037762e-01
2.979999999999999982e+00 1.359175606751371335e-01
2.990000000000000213e+00 1.255626980834237405e-01
3.000000000000000000e+00 1.086380402946730828e-01
3.010000000000000231e+00 8.657828473215818665e-02
3.020000000000000018e+00 5.918297715538158033e-02
3.030000000000000249e+00 2.822119262567855322e-02
3.040000000000000036e+00 -5.592033228018655766e-03
3.050000000000000266e+00 -4.063451012828014214e-02
3.060000000000000053e+00 -7.557998745628792536e-02
3.070000000000000284e+00 -1.089003270340355295e-01
3.080000000000000071e+00 -1.392757479376421914e-01
3.089999999999999858e+00 -1.651691803565281391e-01
3.100000000000000089e+00 -1.858829514478684553e-01
3.109999999999999876e+00 -1.998001642699756830e-01
3.120000000000000107e+00 -2.072846152034705236e-01
3.129999999999999893e+00 -2.066707397883921771e-01
3.140000000000000124e+00 -1.993052894023303323e-01
3.149999999999999911e+00 -1.842796392729799115e-01
3.160000000000000142e+00 -1.631109195429626402e-01
3.169999999999999929e+00 -1.360069244341123029e-01
3.180000000000000160e+00 -1.044407043149066239e-01
3.189999999999999947e+00 -6.949433136433993963e-02
3.200000000000000178e+00 -3.262932435298774442e-02
3.209999999999999964e+00 4.729905340605203290e-03
3.220000000000000195e+00 4.102550713119469672e-02
3.229999999999999982e+00 7.512163879142702561e-02
3.240000000000000213e+00 1.052568008152406781e-01
3.250000000000000000e+00 1.310737238642268043e-01
3.260000000000000231e+00 1.507770144300838444e-01
3.270000000000000018e+00 1.647439243712665868e-01
3.280000000000000249e+00 1.718300752393402964e-01
3.290000000000000036e+00 1.726584636625241587e-01
3.300000000000000266e+00 1.670737059509079525e-01
3.310000000000000053e+00 1.558161438423896761e-01
3.320000000000000284e+00 1.396463771647308560e-01
3.330000000000000071e+00 1.194099804384914920e-01
3.339999999999999858e+00 9.642506593786054347e-02
3.350000000000000089e+00 7.171700729971788868e-02
3.359999999999999876e+00 4.662814302662575405e-02
3.370000000000000107e+00 2.246356753518129884e-02
3.379999999999999893e+00 1.213872449988099038e-04
3.390000000000000124e+00 -1.902065967678751024e-02
3.399999999999999911e+00 -3.455900650386516809e-02
3.410000000000000142e+00 -4.551411904057244689e-02
3.419999999999999929e+00 -5.179779972052015596e-02
3.430000000000000160e+00 -5.316636652812765929e-02
3.439999999999999947e+00 -4.974673783205541683e-02
3.450000000000000178e+00 -4.208790831132799143e-02
3.459999999999999964e+00 -3.052308357323637797e-02
3.470000000000000195e+00 -1.617159928884382911e-02
3.479999999999999982e+00 3.573844020917475717e-04
3.490000000000000213e+00 1.780417486984771022e-02
3.500000000000000000e+00 3.518492398318573411e-02
3.510000000000000231e+00 5.151681944879352160e-02
3.520000000000000018e+00 6.565784800767862639e-02
3.530000000000000249e+00 7.696267520066195356e-02
3.540000000000000036e+00 8.457129295385107381e-02
3.550000000000000266e+00 8.808240972621690645e-02
3.560000000000000053e+00 8.727030450657476124e-02
3.570000000000000284e+00 8.193230029054343611e-02
3.580000000000000071e+00 7.259338392025740938e-02
3.589999999999999858e+00 5.928644361236378585e-02
3.600000000000000089e+00 4.313171887401733018e-02
3.609999999999999876e+00 2.451435338288524696e-02
3.620000000000000107e+00 4.752579408510555076e-03
3.629999999999999893e+00 -1.523720478840175953e-02
3.640000000000000124e+00 -3.434764151149596878e-02
3.649999999999999911e+00 -5.139884978536665705e-02
3.660000000000000142e+00 -6.547295475783981855e-02
3.669999999999999929e+00 -7.561107864200659889e-02
3.680000000000000160e+00 -8.100208069203590489e-02
3.689999999999999947e+00 -8.132590946213694161e-02
3.700000000000000178e+00 -7.583914657637375045e-02
3.709999999999999964e+00 -6.507688744646270007e-02
3.720000000000000195e+00 -4.841177251550320138e-02
3.729999999999999982e+00 -2.713138319279211411e-02
3.740000000000000213e+00 -1.017849100538452053e-03
3.750000000000000000e+00 2.838339255616676923e-02
3.760000000000000231e+00 6.054108351427490986e-02
3.770000000000000018e+00 9.408599437954817679e-02
3.780000000000000249e+00 1.279689690153127390e-01
3.790000000000000036e+00 1.609433115896105604e-01
3.800000000000000266e+00 1.919373529579755655e-01
3.810000000000000053e+00 2.197338690590118770e-01
3.820000000000000284e+00 2.437284963204782995e-01
3.830000000000000071e+00 2.626651700172930592e-01
3.839999999999999858e+00 2.767561433005533700e-01
3.850000000000000089e+00 2.847166643303560840e-01
3.859999999999999876e+00 2.875298865954998284e-01
