# [DEFAULT]
# # input and output specifications
# dataformat = QA
# outputtype = gr
# 
# # PDF calculation setup
# mode = xray
# wavelength = 
# composition = Cl4.0Cr1.0Na1.0
# bgscale = 1.0
# rpoly = 0.9
# qmaxinst = 28
# qmin = 0.0
# qmax = 22
# rmin = 0.0
# rmax = 30.0
# rstep = 0.01
# 
# # End of config --------------------------------------------------------------
# 
# #### start data
# #S 1
# #L r(Å)  G(Å$^$)
# 
0.000000000000000000e+00 0.000000000000000000e+00
1.000000000000000021e-02 -3.483573679251204987e-03
2.000000000000000042e-02 -7.060325397298712266e-03
2.999999999999999889e-02 -1.083115825947610772e-02
4.000000000000000083e-02 -1.482246315054244583e-02
5.000000000000000278e-02 -1.905713889477216039e-02
5.999999999999999778e-02 -2.346864144497298049e-02
7.000000000000000666e-02 -2.795269150682235318e-02
8.000000000000000167e-02 -3.232538403261277227e-02
8.999999999999999667e-02 -3.638376398203180262e-02
1.000000000000000056e-01 -3.980092710841955789e-02
1.100000000000000006e-01 -4.238468261963352496e-02
1.199999999999999956e-01 -4.364876006233536776e-02
1.300000000000000044e-01 -4.353957219257530847e-02
1.400000000000000133e-01 -4.151783425020424967e-02
1.499999999999999944e-01 -3.767726068953062418e-02
1.600000000000000033e-01 -3.166967285614023103e-02
1.700000000000000122e-01 -2.367249446046840178e-02
1.799999999999999933e-01 -1.368670489212301181e-02
1.900000000000000022e-01 -1.998887587532951517e-03
2.000000000000000111e-01 1.102113057242123592e-02
2.099999999999999922e-01 2.491587765075985519e-02
2.200000000000000011e-01 3.907687175263083179e-02
2.300000000000000100e-01 5.278488481602719440e-02
2.399999999999999911e-01 6.546038332213914568e-02
2.500000000000000000e-01 7.603241723543373298e-02
2.600000000000000089e-01 8.417979161952668377e-02
2.700000000000000178e-01 8.878164035628459405e-02
2.800000000000000266e-01 8.967983255097794482e-02
2.899999999999999800e-01 8.609834230540466815e-02
2.999999999999999889e-01 7.800137769897019790e-02
3.099999999999999978e-01 6.525201477356638857e-02
3.200000000000000067e-01 4.795739472132606873e-02
3.300000000000000155e-01 2.672199248447260783e-02
3.400000000000000244e-01 1.905097730441713752e-03
3.500000000000000333e-01 -2.530255060267356387e-02
3.599999999999999867e-01 -5.409310669779166664e-02
3.699999999999999956e-01 -8.308542867052369496e-02
3.800000000000000044e-01 -1.108358891280810804e-01
3.900000000000000133e-01 -1.361526949963786093e-01
4.000000000000000222e-01 -1.572586857821511863e-01
4.100000000000000311e-01 -1.731259876415360277e-01
4.199999999999999845e-01 -1.822571845260448631e-01
4.299999999999999933e-01 -1.836777776108175497e-01
4.400000000000000022e-01 -1.767718231624303138e-01
4.500000000000000111e-01 -1.605842662319076630e-01
4.600000000000000200e-01 -1.357660679561991657e-01
4.700000000000000289e-01 -1.014951394166136722e-01
4.799999999999999822e-01 -5.971455589694545096e-02
4.899999999999999911e-01 -1.003006098720109207e-02
5.000000000000000000e-01 4.486879344263947772e-02
5.100000000000000089e-01 1.040702679511096157e-01
5.200000000000000178e-01 1.650820798592947392e-01
5.300000000000000266e-01 2.258606942103718873e-01
5.400000000000000355e-01 2.839839990065790576e-01
5.500000000000000444e-01 3.371139266985888616e-01
5.600000000000000533e-01 3.826654054880064826e-01
5.700000000000000622e-01 4.190002669168139127e-01
5.799999999999999600e-01 4.431658549173041473e-01
5.899999999999999689e-01 4.551218998516366465e-01
5.999999999999999778e-01 4.514983473444179607e-01
6.099999999999999867e-01 4.341549554193113170e-01
6.199999999999999956e-01 4.002646150214758669e-01
6.300000000000000044e-01 3.526321258732402208e-01
6.400000000000000133e-01 2.903862960896918533e-01
6.500000000000000222e-01 2.162845519611300560e-01
6.600000000000000311e-01 1.316001412750042732e-01
6.700000000000000400e-01 3.910920586028138191e-02
6.800000000000000488e-01 -5.844341997403858235e-02
6.900000000000000577e-01 -1.579792069991879100e-01
7.000000000000000666e-01 -2.564099205498880929e-01
7.099999999999999645e-01 -3.499638990337586297e-01
7.199999999999999734e-01 -4.365417386513248954e-01
7.299999999999999822e-01 -5.113384870168327101e-01
7.399999999999999911e-01 -5.739431210922766313e-01
7.500000000000000000e-01 -6.199610615498928334e-01
7.600000000000000089e-01 -6.496919963680665155e-01
7.700000000000000178e-01 -6.605312808600835028e-01
7.800000000000000266e-01 -6.530514052877710585e-01
7.900000000000000355e-01 -6.271114204972770834e-01
8.000000000000000444e-01 -5.834138642247902462e-01
8.100000000000000533e-01 -5.242512645974006791e-01
8.200000000000000622e-01 -4.506107976575461360e-01
8.300000000000000711e-01 -3.664944070251033303e-01
8.399999999999999689e-01 -2.735766739969542893e-01
8.499999999999999778e-01 -1.762827686899052226e-01
8.599999999999999867e-01 -7.756073330060116178e-02
8.699999999999999956e-01 1.900869210882842955e-02
8.800000000000000044e-01 1.096907551064632835e-01
8.900000000000000133e-01 1.918135151518672032e-01
9.000000000000000222e-01 2.621810852914676082e-01
9.100000000000000311e-01 3.186064908255589190e-01
9.200000000000000400e-01 3.596575295762948765e-01
9.300000000000000488e-01 3.833536550511030816e-01
9.400000000000000577e-01 3.907048163913803829e-01
9.500000000000000666e-01 3.799247905038744544e-01
9.599999999999999645e-01 3.544302011995983381e-01
9.699999999999999734e-01 3.129192143752815847e-01
9.799999999999999822e-01 2.601266380801414146e-01
9.899999999999999911e-01 1.967678119139701087e-01
1.000000000000000000e+00 1.269709085859729303e-01
1.010000000000000009e+00 5.325854884152422114e-02
1.020000000000000018e+00 -2.079181373778495739e-02
1.030000000000000027e+00 -9.210590515206268369e-02
1.040000000000000036e+00 -1.573683846349282212e-01
1.050000000000000044e+00 -2.143157080285617577e-01
1.060000000000000053e+00 -2.596223621780899271e-01
1.070000000000000062e+00 -2.929302531010941069e-01
1.080000000000000071e+00 -3.108095816113416454e-01
1.090000000000000080e+00 -3.151165541898544031e-01
1.100000000000000089e+00 -3.032062462833534644e-01
1.110000000000000098e+00 -2.780819407418531619e-01
1.120000000000000107e+00 -2.392035873895014542e-01
1.130000000000000115e+00 -1.895587963316346936e-01
1.140000000000000124e+00 -1.307025717434135981e-01
1.150000000000000133e+00 -6.557121627814613274e-02
1.159999999999999920e+00 3.071321970712526106e-03
1.169999999999999929e+00 7.215818493159247005e-02
1.179999999999999938e+00 1.389483816711890307e-01
1.189999999999999947e+00 1.999881742866292389e-01
1.199999999999999956e+00 2.538069809231247587e-01
1.209999999999999964e+00 2.963997741835402433e-01
1.219999999999999973e+00 3.280626470088265356e-01
1.229999999999999982e+00 3.456125344180486225e-01
1.239999999999999991e+00 3.500837047417121872e-01
1.250000000000000000e+00 3.401704354251555151e-01
1.260000000000000009e+00 3.172374548672613481e-01
1.270000000000000018e+00 2.820738436237880675e-01
1.280000000000000027e+00 2.362807510125384813e-01
1.290000000000000036e+00 1.822864992119574978e-01
1.300000000000000044e+00 1.220690406148733087e-01
1.310000000000000053e+00 5.872554261594378766e-02
1.320000000000000062e+00 -5.110770453962919929e-03
1.330000000000000071e+00 -6.682426574012081955e-02
1.340000000000000080e+00 -1.230856674621914337e-01
1.350000000000000089e+00 -1.723704853367419298e-01
1.360000000000000098e+00 -2.116006734547080659e-01
1.370000000000000107e+00 -2.399790739376757853e-01
1.380000000000000115e+00 -2.557278968305403688e-01
1.390000000000000124e+00 -2.584671722410860628e-01
1.400000000000000133e+00 -2.483049852891379694e-01
1.409999999999999920e+00 -2.251589789898178484e-01
1.419999999999999929e+00 -1.910037662523988711e-01
1.429999999999999938e+00 -1.461641828846381164e-01
1.439999999999999947e+00 -9.387219986224006052e-02
1.449999999999999956e+00 -3.515416180207638075e-02
1.459999999999999964e+00 2.657019124748694061e-02
1.469999999999999973e+00 8.912230904546381005e-02
1.479999999999999982e+00 1.498550225798123137e-01
1.489999999999999991e+00 2.061296726924478628e-01
1.500000000000000000e+00 2.558674965887350883e-01
1.510000000000000009e+00 2.970585198903917812e-01
1.520000000000000018e+00 3.279334310160342825e-01
1.530000000000000027e+00 3.479507668496240602e-01
1.540000000000000036e+00 3.555113399061912149e-01
1.550000000000000044e+00 3.519075022549440490e-01
1.560000000000000053e+00 3.357683611663317969e-01
1.570000000000000062e+00 3.098814088792028465e-01
1.580000000000000071e+00 2.737831862143829120e-01
1.590000000000000080e+00 2.306093683413965589e-01
1.600000000000000089e+00 1.813786525763194379e-01
1.610000000000000098e+00 1.287912814340623213e-01
1.620000000000000107e+00 7.482570043843544960e-02
1.630000000000000115e+00 2.185383798137285200e-02
1.640000000000000124e+00 -2.814828009876345696e-02
1.650000000000000133e+00 -7.295878251889072186e-02
1.660000000000000142e+00 -1.115027811259700352e-01
1.669999999999999929e+00 -1.415843434035237991e-01
1.679999999999999938e+00 -1.636226984292907249e-01
1.689999999999999947e+00 -1.754749099135741175e-01
1.699999999999999956e+00 -1.788966691601604209e-01
1.709999999999999964e+00 -1.728713910454089675e-01
1.719999999999999973e+00 -1.593619117308976429e-01
1.729999999999999982e+00 -1.388276163215761139e-01
1.739999999999999991e+00 -1.132069100426463665e-01
1.750000000000000000e+00 -8.401874215167337567e-02
1.760000000000000009e+00 -5.320211337676027108e-02
1.770000000000000018e+00 -2.258442484601669992e-02
1.780000000000000027e+00 5.775544566476873733e-03
1.790000000000000036e+00 3.057720073149374634e-02
1.800000000000000044e+00 4.953656510416019898e-02
1.810000000000000053e+00 6.245293673787644106e-02
1.820000000000000062e+00 6.715236561200620125e-02
1.830000000000000071e+00 6.434987759887221548e-02
1.840000000000000080e+00 5.285081935557774807e-02
1.850000000000000089e+00 3.366455449298948188e-02
1.860000000000000098e+00 6.911807136349316233e-03
1.870000000000000107e+00 -2.624098942967404563e-02
1.880000000000000115e+00 -6.456887933798666213e-02
1.890000000000000124e+00 -1.067334598961454384e-01
1.900000000000000133e+00 -1.509692819814818510e-01
1.910000000000000142e+00 -1.956497639727609594e-01
1.919999999999999929e+00 -2.392162059080382153e-01
1.929999999999999938e+00 -2.796241444303482759e-01
1.939999999999999947e+00 -3.160646443607770251e-01
1.949999999999999956e+00 -3.465538367184911595e-01
1.959999999999999964e+00 -3.708660852934001495e-01
1.969999999999999973e+00 -3.877423139739584745e-01
1.979999999999999982e+00 -3.972832718714500166e-01
1.989999999999999991e+00 -3.993306168298849657e-01
2.000000000000000000e+00 -3.941827615763067727e-01
2.010000000000000231e+00 -3.827691655695703576e-01
2.020000000000000018e+00 -3.655807501351475142e-01
2.030000000000000249e+00 -3.442674231217404124e-01
2.040000000000000036e+00 -3.196021493223574206e-01
2.049999999999999822e+00 -2.933465155846233796e-01
2.060000000000000053e+00 -2.666856526602467414e-01
2.069999999999999840e+00 -2.409295969777565660e-01
2.080000000000000071e+00 -2.173958408768901507e-01
2.089999999999999858e+00 -1.968735000839747784e-01
2.100000000000000089e+00 -1.802715640450781587e-01
2.109999999999999876e+00 -1.679844152736143237e-01
2.120000000000000107e+00 -1.601265457642041257e-01
2.129999999999999893e+00 -1.567535636543231081e-01
2.140000000000000124e+00 -1.571268599693489421e-01
2.149999999999999911e+00 -1.609176968578262812e-01
2.160000000000000142e+00 -1.668184846719159009e-01
2.169999999999999929e+00 -1.739878473940617287e-01
2.180000000000000160e+00 -1.810537143737587507e-01
2.189999999999999947e+00 -1.866396158696139729e-01
2.200000000000000178e+00 -1.896681403627646090e-01
2.209999999999999964e+00 -1.886940428002076009e-01
2.220000000000000195e+00 -1.828788311742209349e-01
2.229999999999999982e+00 -1.713056500744002120e-01
2.240000000000000213e+00 -1.533126156149547947e-01
2.250000000000000000e+00 -1.289342024145201937e-01
2.260000000000000231e+00 -9.770481635773331508e-02
2.270000000000000018e+00 -6.071625577608986274e-02
2.280000000000000249e+00 -1.784186183514204632e-02
2.290000000000000036e+00 2.907938558202425097e-02
2.300000000000000266e+00 7.944812944294470103e-02
2.310000000000000053e+00 1.313267546702377164e-01
2.319999999999999840e+00 1.832707438148755974e-01
2.330000000000000071e+00 2.335633101298560943e-01
2.339999999999999858e+00 2.804401070815658592e-01
2.350000000000000089e+00 3.222791282642617494e-01
2.359999999999999876e+00 3.577365830701906835e-01
2.370000000000000107e+00 3.851519792077164328e-01
2.379999999999999893e+00 4.042387898774823518e-01
2.390000000000000124e+00 4.132480581044786772e-01
2.399999999999999911e+00 4.133043417971811184e-01
2.410000000000000142e+00 4.026686896061307808e-01
2.419999999999999929e+00 3.835701418175883060e-01
2.430000000000000160e+00 3.553386415540989440e-01
2.439999999999999947e+00 3.201817343258368531e-01
2.450000000000000178e+00 2.787858273423953759e-01
2.459999999999999964e+00 2.331791220754651783e-01
2.470000000000000195e+00 1.849437405420065739e-01
2.479999999999999982e+00 1.360315991891600795e-01
2.490000000000000213e+00 8.818386948695348948e-02
2.500000000000000000e+00 4.343988153571833044e-02
2.510000000000000231e+00 2.923671031758584560e-03
2.520000000000000018e+00 -3.111135044512029768e-02
2.530000000000000249e+00 -5.866422867150716119e-02
2.540000000000000036e+00 -7.757888852407486546e-02
2.550000000000000266e+00 -8.874133076649602658e-02
2.560000000000000053e+00 -9.097459258826819106e-02
2.569999999999999840e+00 -8.538236982456597068e-02
2.580000000000000071e+00 -7.208820817137392978e-02
2.589999999999999858e+00 -5.229206335596117000e-02
2.600000000000000089e+00 -2.720066209338208030e-02
2.609999999999999876e+00 1.861219330984548691e-03
2.620000000000000107e+00 3.315058660847586269e-02
2.629999999999999893e+00 6.509131030289103115e-02
2.640000000000000124e+00 9.612471983743375858e-02
2.649999999999999911e+00 1.242849937458397058e-01
2.660000000000000142e+00 1.487351344424931443e-01
2.669999999999999929e+00 1.675422897311446280e-01
2.680000000000000160e+00 1.804634206982908273e-01
2.689999999999999947e+00 1.862496568734407221e-01
2.700000000000000178e+00 1.849950413703067009e-01
2.709999999999999964e+00 1.765231299853917968e-01
2.720000000000000195e+00 1.611486129678818546e-01
2.729999999999999982e+00 1.397764326621743491e-01
2.740000000000000213e+00 1.129571840865599419e-01
2.750000000000000000e+00 8.232952555593454902e-02
2.760000000000000231e+00 4.880307919374785725e-02
2.770000000000000018e+00 1.414965696844129595e-02
2.780000000000000249e+00 -2.020706847946631551e-02
2.790000000000000036e+00 -5.290800546418610723e-02
2.800000000000000266e+00 -8.231906996586349501e-02
2.810000000000000053e+00 -1.075240082634308508e-01
2.819999999999999840e+00 -1.272758357831760279e-01
2.830000000000000071e+00 -1.409416605568973024e-01
2.839999999999999858e+00 -1.481407044023883013e-01
2.850000000000000089e+00 -1.484308596431649085e-01
2.859999999999999876e+00 -1.424753518005743014e-01
2.870000000000000107e+00 -1.300419407272649930e-01
2.879999999999999893e+00 -1.126710091442081618e-01
2.890000000000000124e+00 -9.046940069199335688e-02
2.899999999999999911e+00 -6.532828155275088866e-02
2.910000000000000142e+00 -3.806855544499006955e-02
2.919999999999999929e+00 -1.027067351458605879e-02
2.930000000000000160e+00 1.677826767119800638e-02
2.939999999999999947e+00 4.180348047818584212e-02
2.950000000000000178e+00 6.363415943417188858e-02
2.959999999999999964e+00 8.119370370878260801e-02
2.970000000000000195e+00 9.395029864018375476e-02
2.979999999999999982e+00 1.009590676880862681e-01
2.990000000000000213e+00 1.026220820066803402e-01
3.000000000000000000e+00 9.815565544891087513e-02
3.010000000000000231e+00 8.881988609761852504e-02
3.020000000000000018e+00 7.430945135743972918e-02
3.030000000000000249e+00 5.621110901636541812e-02
3.040000000000000036e+00 3.505028326643627040e-02
3.050000000000000266e+00 1.227380684719087817e-02
3.060000000000000053e+00 -1.101221437883194258e-02
3.070000000000000284e+00 -3.346991485789856113e-02
3.080000000000000071e+00 -5.395148994607811693e-02
3.089999999999999858e+00 -7.114835985772718918e-02
3.100000000000000089e+00 -8.441076072997769075e-02
3.109999999999999876e+00 -9.240425744536882868e-02
3.120000000000000107e+00 -9.536172038158378939e-02
3.129999999999999893e+00 -9.195425873721059518e-02
3.140000000000000124e+00 -8.324612374492976197e-02
3.149999999999999911e+00 -6.856017232420576202e-02
3.160000000000000142e+00 -4.914065031738792944e-02
3.169999999999999929e+00 -2.524057136086198250e-02
3.180000000000000160e+00 1.895169497010391977e-03
3.189999999999999947e+00 3.130631990420848498e-02
3.200000000000000178e+00 6.172448500065792765e-02
3.209999999999999964e+00 9.195190410367884426e-02
3.220000000000000195e+00 1.206125701795682098e-01
3.229999999999999982e+00 1.468198737402040821e-01
3.240000000000000213e+00 1.690123041264955384e-01
3.250000000000000000e+00 1.870241690830629633e-01
3.260000000000000231e+00 1.992917724917368516e-01
3.270000000000000018e+00 2.062916266504535301e-01
3.280000000000000249e+00 2.070869932794020263e-01
3.290000000000000036e+00 2.023460434309631018e-01
3.300000000000000266e+00 1.920363112543892747e-01
3.310000000000000053e+00 1.769215370901822126e-01
3.320000000000000284e+00 1.577703655759609969e-01
3.330000000000000071e+00 1.354485616953390870e-01
3.339999999999999858e+00 1.111705302959777597e-01
3.350000000000000089e+00 8.598291143827892224e-02
3.359999999999999876e+00 6.104347727667770729e-02
3.370000000000000107e+00 3.767290751998999404e-02
3.379999999999999893e+00 1.656268379479275410e-02
3.390000000000000124e+00 -9.448254369762258686e-04
3.399999999999999911e+00 -1.460142240486836038e-02
3.410000000000000142e+00 -2.350321928387063414e-02
3.419999999999999929e+00 -2.766850596783017660e-02
3.430000000000000160e+00 -2.693017793203481003e-02
3.439999999999999947e+00 -2.148851668208632756e-02
3.450000000000000178e+00 -1.193960494744780026e-02
3.459999999999999964e+00 1.328962807140896592e-03
3.470000000000000195e+00 1.719352272952793040e-02
3.479999999999999982e+00 3.499900860171573092e-02
3.490000000000000213e+00 5.351859239491075365e-02
3.500000000000000000e+00 7.173110101187336884e-02
3.510000000000000231e+00 8.869806323009535309e-02
3.520000000000000018e+00 1.032575062906330998e-01
3.530000000000000249e+00 1.147915182048816901e-01
3.540000000000000036e+00 1.224298408412673594e-01
3.550000000000000266e+00 1.257728571060835465e-01
3.560000000000000053e+00 1.245843811837531734e-01
3.570000000000000284e+00 1.186298299794728422e-01
3.580000000000000071e+00 1.084233591860410822e-01
3.589999999999999858e+00 9.392370146659838326e-02
3.600000000000000089e+00 7.625252721901119857e-02
3.609999999999999876e+00 5.566932222539201086e-02
3.620000000000000107e+00 3.351453327758652928e-02
3.629999999999999893e+00 1.056537229168843725e-02
3.640000000000000124e+00 -1.205477727440002096e-02
3.649999999999999911e+00 -3.327478769978520212e-02
3.660000000000000142e+00 -5.217710462689233858e-02
3.669999999999999929e+00 -6.784983851671066990e-02
3.680000000000000160e+00 -7.949798397429722052e-02
3.689999999999999947e+00 -8.676749007504820643e-02
3.700000000000000178e+00 -8.893955947097745285e-02
3.709999999999999964e+00 -8.643276846656902657e-02
3.720000000000000195e+00 -7.863637871525956669e-02
3.729999999999999982e+00 -6.666370575570125523e-02
3.740000000000000213e+00 -5.026746432972840906e-02
3.750000000000000000e+00 -3.081322008622260772e-02
3.760000000000000231e+00 -8.728461251490510567e-03
3.770000000000000018e+00 1.477315765663181346e-02
3.780000000000000249e+00 3.878917310006133740e-02
3.790000000000000036e+00 6.222253365354810800e-02
3.800000000000000266e+00 8.413548227690173520e-02
3.810000000000000053e+00 1.034752512191598889e-01
3.820000000000000284e+00 1.197037179978971827e-01
3.830000000000000071e+00 1.317612618658266510e-01
3.839999999999999858e+00 1.398161859667862161e-01
3.850000000000000089e+00 1.428205540063395007e-01
3.859999999999999876e+00 1.416118501603728097e-01
