# [DEFAULT]
# # input and output specifications
# dataformat = QA
# outputtype = gr
# 
# # PDF calculation setup
# mode = xray
# wavelength = 
# composition = Cl4.0Cr1.0Na1.0
# bgscale = 1.0
# rpoly = 0.9
# qmaxinst = 28
# qmin = 0.0
# qmax = 22
# rmin = 0.0
# rmax = 30.0
# rstep = 0.01
# 
# # End of config --------------------------------------------------------------
# 
# #### start data
# #S 1
# #L r(Å)  G(Å$^$)
# 
0.000000000000000000e+00 0.000000000000000000e+00
1.000000000000000021e-02 -3.399280440251333836e-03
2.000000000000000042e-02 -6.896049349762269076e-03
2.999999999999999889e-02 -1.059647597263607341e-02
4.000000000000000083e-02 -1.452970525121188329e-02
5.000000000000000278e-02 -1.872297559423322794e-02
5.999999999999999778e-02 -2.311137283429189060e-02
7.000000000000000666e-02 -2.759231301163379141e-02
8.000000000000000167e-02 -3.198265382883599267e-02
8.999999999999999667e-02 -3.607774567613449002e-02
1.000000000000000056e-01 -3.955048334265114790e-02
1.100000000000000006e-01 -4.220405456436307490e-02
1.199999999999999956e-01 -4.355055593516221624e-02
1.300000000000000044e-01 -4.353048337150005470e-02
1.400000000000000133e-01 -4.160066251007193266e-02
1.499999999999999944e-01 -3.784957765822822423e-02
1.600000000000000033e-01 -3.192365247260400829e-02
1.700000000000000122e-01 -2.399616445899535253e-02
1.799999999999999933e-01 -1.406331699303557323e-02
1.900000000000000022e-01 -2.408301612445752811e-03
2.000000000000000111e-01 1.060111826760888436e-02
2.099999999999999922e-01 2.451023437233795441e-02
2.200000000000000011e-01 3.870870351701967416e-02
2.300000000000000100e-01 5.247911114381310915e-02
2.399999999999999911e-01 6.523623681642427841e-02
2.500000000000000000e-01 7.590913219434367032e-02
2.600000000000000089e-01 8.416887687086305192e-02
2.700000000000000178e-01 8.889072608071099668e-02
2.800000000000000266e-01 8.990938152904776048e-02
2.899999999999999800e-01 8.644206128320758298e-02
2.999999999999999889e-01 7.844602173382463073e-02
3.099999999999999978e-01 6.577747408234113635e-02
3.200000000000000067e-01 4.853623547175809488e-02
3.300000000000000155e-01 2.732281345183821750e-02
3.400000000000000244e-01 2.488383540327128787e-03
3.500000000000000333e-01 -2.477495073492420180e-02
3.599999999999999867e-01 -5.366809986257230214e-02
3.699999999999999956e-01 -8.280280543121402992e-02
3.800000000000000044e-01 -1.107416796520862695e-01
3.900000000000000133e-01 -1.362832401648843283e-01
4.000000000000000222e-01 -1.576502364250677579e-01
4.100000000000000311e-01 -1.738051513108776480e-01
4.199999999999999845e-01 -1.832442453594771981e-01
4.299999999999999933e-01 -1.849828024009293193e-01
4.400000000000000022e-01 -1.783949789581458500e-01
4.500000000000000111e-01 -1.625135798987029923e-01
4.600000000000000200e-01 -1.379800389514642678e-01
4.700000000000000289e-01 -1.039564817161007654e-01
4.799999999999999822e-01 -6.238131197166925379e-02
4.899999999999999911e-01 -1.283923083069251486e-02
5.000000000000000000e-01 4.197847022911780496e-02
5.100000000000000089e-01 1.011796117899142616e-01
5.200000000000000178e-01 1.622694855380754086e-01
5.300000000000000266e-01 2.232172173273851978e-01
5.400000000000000355e-01 2.815994184748651930e-01
5.500000000000000444e-01 3.350810945203702707e-01
5.600000000000000533e-01 3.810778559623512196e-01
5.700000000000000622e-01 4.179443031073493686e-01
5.799999999999999600e-01 4.427301119370499749e-01
5.899999999999999689e-01 4.553788163045059401e-01
5.999999999999999778e-01 4.525228926336240520e-01
6.099999999999999867e-01 4.360009197826735794e-01
6.199999999999999956e-01 4.029837398235439072e-01
6.300000000000000044e-01 3.562565213341479242e-01
6.400000000000000133e-01 2.949388538265768633e-01
6.500000000000000222e-01 2.217722035205846320e-01
6.600000000000000311e-01 1.380164773824577029e-01
6.700000000000000400e-01 4.643307136528131845e-02
6.800000000000000488e-01 -5.024584913998522001e-02
6.900000000000000577e-01 -1.489580364180152217e-01
7.000000000000000666e-01 -2.466226307798377038e-01
7.099999999999999645e-01 -3.394883854913231525e-01
7.199999999999999734e-01 -4.254540637701251793e-01
7.299999999999999822e-01 -4.997413151954563371e-01
7.399999999999999911e-01 -5.619289019990488798e-01
7.500000000000000000e-01 -6.076453125280132372e-01
7.600000000000000089e-01 -6.371818324128311062e-01
7.700000000000000178e-01 -6.479476080892896395e-01
7.800000000000000266e-01 -6.405107463149181113e-01
7.900000000000000355e-01 -6.147330449301394717e-01
8.000000000000000444e-01 -5.713174339304760707e-01
8.100000000000000533e-01 -5.125478860494385724e-01
8.200000000000000622e-01 -4.394163207305987751e-01
8.300000000000000711e-01 -3.559059805129501930e-01
8.399999999999999689e-01 -2.636989507461457438e-01
8.499999999999999778e-01 -1.671953306678563844e-01
8.599999999999999867e-01 -6.934707787441340976e-02
8.699999999999999956e-01 2.628875093576956562e-02
8.800000000000000044e-01 1.159824548874107408e-01
8.900000000000000133e-01 1.970808229691773938e-01
9.000000000000000222e-01 2.664001082635532036e-01
9.100000000000000311e-01 3.217697352278133249e-01
9.200000000000000400e-01 3.617720068266103151e-01
9.300000000000000488e-01 3.844433800198444051e-01
9.400000000000000577e-01 3.908054164010569265e-01
9.500000000000000666e-01 3.790922469614638191e-01
9.599999999999999645e-01 3.527240929095904476e-01
9.699999999999999734e-01 3.104248161889205937e-01
9.799999999999999822e-01 2.569238068395118813e-01
9.899999999999999911e-01 1.929585865228748698e-01
1.000000000000000000e+00 1.226508027215137409e-01
1.010000000000000009e+00 4.853517970791337149e-02
1.020000000000000018e+00 -2.581649333266949550e-02
1.030000000000000027e+00 -9.733039804029819386e-02
1.040000000000000036e+00 -1.626959117175860170e-01
1.050000000000000044e+00 -2.196621204146024520e-01
1.060000000000000053e+00 -2.649088196867258604e-01
1.070000000000000062e+00 -2.980993901253201073e-01
1.080000000000000071e+00 -3.158128992520373157e-01
1.090000000000000080e+00 -3.199297757666604292e-01
1.100000000000000089e+00 -3.078217293709881730e-01
1.110000000000000098e+00 -2.825127610625937646e-01
1.120000000000000107e+00 -2.434855663138515425e-01
1.130000000000000115e+00 -1.937450530390596171e-01
1.140000000000000124e+00 -1.348679855172564834e-01
1.150000000000000133e+00 -6.980745431054997951e-02
1.159999999999999920e+00 -1.340363172213331067e-03
1.169999999999999929e+00 6.744795671958345173e-02
1.179999999999999938e+00 1.338184010002495816e-01
1.189999999999999947e+00 1.942964790194268709e-01
1.199999999999999956e+00 2.474311381979868718e-01
1.209999999999999964e+00 2.891959410927290031e-01
1.219999999999999973e+00 3.199190572006457844e-01
1.229999999999999982e+00 3.364104167781054033e-01
1.239999999999999991e+00 3.397340762541002923e-01
1.250000000000000000e+00 3.285951504162221704e-01
1.260000000000000009e+00 3.043860158286972872e-01
1.270000000000000018e+00 2.679186066806491517e-01
1.280000000000000027e+00 2.208224285657369723e-01
1.290000000000000036e+00 1.655513678470391381e-01
1.300000000000000044e+00 1.041162735396443939e-01
1.310000000000000053e+00 3.963186044292052457e-02
1.320000000000000062e+00 -2.522760536916696453e-02
1.330000000000000071e+00 -8.784463855523905185e-02
1.340000000000000080e+00 -1.448455623667695980e-01
1.350000000000000089e+00 -1.947155857621198916e-01
1.360000000000000098e+00 -2.343445827957277294e-01
1.370000000000000107e+00 -2.629458408527329816e-01
1.380000000000000115e+00 -2.787305218432670761e-01
1.390000000000000124e+00 -2.813276291095242465e-01
1.400000000000000133e+00 -2.708567002654367895e-01
1.409999999999999920e+00 -2.472432331267247207e-01
1.419999999999999929e+00 -2.124918505490349940e-01
1.429999999999999938e+00 -1.669368819182037444e-01
1.439999999999999947e+00 -1.138502407418136020e-01
1.449999999999999956e+00 -5.427375748599135019e-02
1.459999999999999964e+00 8.334575670514987600e-03
1.469999999999999973e+00 7.177003432787834591e-02
1.479999999999999982e+00 1.333574656721714380e-01
1.489999999999999991e+00 1.904289435510471695e-01
1.500000000000000000e+00 2.408843609203378255e-01
1.510000000000000009e+00 2.826926227480022202e-01
1.520000000000000018e+00 3.140662357398769089e-01
1.530000000000000027e+00 3.344591479111521104e-01
1.540000000000000036e+00 3.422555074643612860e-01
1.550000000000000044e+00 3.387631160157341115e-01
1.560000000000000053e+00 3.225968573354828228e-01
1.570000000000000062e+00 2.965759244737176115e-01
1.580000000000000071e+00 2.602331463346295726e-01
1.590000000000000080e+00 2.167398783855394584e-01
1.600000000000000089e+00 1.671284443409541409e-01
1.610000000000000098e+00 1.141308958206973811e-01
1.620000000000000107e+00 5.975106404032969054e-02
1.630000000000000115e+00 6.390922651519390790e-03
1.640000000000000124e+00 -4.394748247523962148e-02
1.650000000000000133e+00 -8.901098637714068007e-02
1.660000000000000142e+00 -1.277094730069192052e-01
1.669999999999999929e+00 -1.578120521238695340e-01
1.679999999999999938e+00 -1.797425052465626838e-01
1.689999999999999947e+00 -1.913188180401937666e-01
1.699999999999999956e+00 -1.943201728385652027e-01
1.709999999999999964e+00 -1.877045063331557184e-01
1.719999999999999973e+00 -1.734605314725686520e-01
1.729999999999999982e+00 -1.520445187095826323e-01
1.739999999999999991e+00 -1.254200007519311599e-01
1.750000000000000000e+00 -9.512299902260452911e-02
1.760000000000000009e+00 -6.311778673267399997e-02
1.770000000000000018e+00 -3.126096876151208959e-02
1.780000000000000027e+00 -1.639641765596451528e-03
1.790000000000000036e+00 2.441587487703242992e-02
1.800000000000000044e+00 4.458662379976732065e-02
1.810000000000000053e+00 5.865279644290120886e-02
1.820000000000000062e+00 6.440009884279650210e-02
1.830000000000000071e+00 6.253753497939219808e-02
1.840000000000000080e+00 5.183742456030279028e-02
1.850000000000000089e+00 3.330902735442004686e-02
1.860000000000000098e+00 7.057785265079510872e-03
1.870000000000000107e+00 -2.574707516129883661e-02
1.880000000000000115e+00 -6.387398249546669127e-02
1.890000000000000124e+00 -1.059792861319005519e-01
1.900000000000000133e+00 -1.502712753863449380e-01
1.910000000000000142e+00 -1.951134096014643104e-01
1.919999999999999929e+00 -2.389093171475682176e-01
1.929999999999999938e+00 -2.795956291280361494e-01
1.939999999999999947e+00 -3.163262684290518156e-01
1.949999999999999956e+00 -3.470863230133535149e-01
1.959999999999999964e+00 -3.716218437925815632e-01
1.969999999999999973e+00 -3.886397322713123770e-01
1.979999999999999982e+00 -3.982181476430892153e-01
1.989999999999999991e+00 -4.001747279303236038e-01
2.000000000000000000e+00 -3.947879519115571334e-01
2.010000000000000231e+00 -3.829832650738022037e-01
2.020000000000000018e+00 -3.652333388883400311e-01
2.030000000000000249e+00 -3.432083667233286617e-01
2.040000000000000036e+00 -3.176669266491304877e-01
2.049999999999999822e+00 -2.904107095223911195e-01
2.060000000000000053e+00 -2.626246974984806082e-01
2.069999999999999840e+00 -2.356644538117367016e-01
2.080000000000000071e+00 -2.108699369936126722e-01
2.089999999999999858e+00 -1.890723488498747829e-01
2.100000000000000089e+00 -1.712182531907814886e-01
2.109999999999999876e+00 -1.577442951388103864e-01
2.120000000000000107e+00 -1.488025598952566475e-01
2.129999999999999893e+00 -1.444959967562375325e-01
2.140000000000000124e+00 -1.441074277068071230e-01
2.149999999999999911e+00 -1.473647266394747524e-01
2.160000000000000142e+00 -1.529519189261687728e-01
2.169999999999999929e+00 -1.600950279113103614e-01
2.180000000000000160e+00 -1.673846759629760150e-01
2.189999999999999947e+00 -1.734936946249798495e-01
2.200000000000000178e+00 -1.773050905394280286e-01
2.209999999999999964e+00 -1.773881396328767235e-01
2.220000000000000195e+00 -1.728681106032345927e-01
2.229999999999999982e+00 -1.628080757873678341e-01
2.240000000000000213e+00 -1.465116783787883681e-01
2.250000000000000000e+00 -1.239682020954316760e-01
2.260000000000000231e+00 -9.467405339994940106e-02
2.270000000000000018e+00 -5.966673162322309876e-02
2.280000000000000249e+00 -1.877050507014935143e-02
2.290000000000000036e+00 2.622094136446828649e-02
2.300000000000000266e+00 7.477194148946678109e-02
2.310000000000000053e+00 1.249726061455412873e-01
2.319999999999999840e+00 1.754414684694164395e-01
2.330000000000000071e+00 2.244807720034763809e-01
2.339999999999999858e+00 2.703699865958924531e-01
2.350000000000000089e+00 3.115047428672396701e-01
2.359999999999999876e+00 3.465527257198597333e-01
2.370000000000000107e+00 3.738738001443513981e-01
2.379999999999999893e+00 3.931553009456539849e-01
2.390000000000000124e+00 4.026711958585417195e-01
2.399999999999999911e+00 4.034858122396456914e-01
2.410000000000000142e+00 3.938812035024149560e-01
2.419999999999999929e+00 3.760092641286717496e-01
2.430000000000000160e+00 3.491945728646967395e-01
2.439999999999999947e+00 3.155799375653051686e-01
2.450000000000000178e+00 2.758196440267517979e-01
2.459999999999999964e+00 2.318887126107518626e-01
2.470000000000000195e+00 1.853260849714115088e-01
2.479999999999999982e+00 1.380359076518725414e-01
2.490000000000000213e+00 9.172289572118286216e-02
2.500000000000000000e+00 4.837781321862059947e-02
2.510000000000000231e+00 9.110214015820586320e-03
2.520000000000000018e+00 -2.388014080156079105e-02
2.530000000000000249e+00 -5.057796575135471012e-02
2.540000000000000036e+00 -6.887814457790084055e-02
2.550000000000000266e+00 -7.963487944685067321e-02
2.560000000000000053e+00 -8.169852332323784827e-02
2.569999999999999840e+00 -7.614201176420190564e-02
2.580000000000000071e+00 -6.308678237965135993e-02
2.589999999999999858e+00 -4.370521655327934407e-02
2.600000000000000089e+00 -1.917803936088970096e-02
2.609999999999999876e+00 9.195699653314771960e-03
2.620000000000000107e+00 3.971196846312090994e-02
2.629999999999999893e+00 7.082216202603552890e-02
2.640000000000000124e+00 1.010058664179756399e-01
2.649999999999999911e+00 1.283308999750120416e-01
2.660000000000000142e+00 1.519866459498274147e-01
2.669999999999999929e+00 1.700767607090631350e-01
2.680000000000000160e+00 1.823722297387836144e-01
2.689999999999999947e+00 1.876527510973739210e-01
2.700000000000000178e+00 1.860197646679363215e-01
2.709999999999999964e+00 1.773086125374064848e-01
2.720000000000000195e+00 1.618384313942655139e-01
2.729999999999999982e+00 1.405058859316923037e-01
2.740000000000000213e+00 1.138641833323072727e-01
2.750000000000000000e+00 8.352612593948802178e-02
2.760000000000000231e+00 5.040072748674691294e-02
2.770000000000000018e+00 1.622450037374624857e-02
2.780000000000000249e+00 -1.758821161374366990e-02
2.790000000000000036e+00 -4.971120864291853070e-02
2.800000000000000266e+00 -7.853031416036247714e-02
2.810000000000000053e+00 -1.031545951902885228e-01
2.819999999999999840e+00 -1.223598783940762075e-01
2.830000000000000071e+00 -1.355338675539002058e-01
2.839999999999999858e+00 -1.423119808362421357e-01
2.850000000000000089e+00 -1.422706029532464223e-01
2.859999999999999876e+00 -1.360756432985198161e-01
2.870000000000000107e+00 -1.235125441997187712e-01
2.879999999999999893e+00 -1.061080824597188665e-01
2.890000000000000124e+00 -8.398532152632338932e-02
2.899999999999999911e+00 -5.901002135171076746e-02
2.910000000000000142e+00 -3.200750516692854597e-02
2.919999999999999929e+00 -4.533438303411727044e-03
2.930000000000000160e+00 2.213458989858890780e-02
2.939999999999999947e+00 4.674412351238529939e-02
2.950000000000000178e+00 6.814212509445648214e-02
2.959999999999999964e+00 8.527317793507678545e-02
2.970000000000000195e+00 9.762338478501494943e-02
2.979999999999999982e+00 1.042698062529882758e-01
2.990000000000000213e+00 1.056245794979931152e-01
3.000000000000000000e+00 1.009280809050378536e-01
3.010000000000000231e+00 9.143781787332801170e-02
3.020000000000000018e+00 7.687119963854537052e-02
3.030000000000000249e+00 5.880294637384451961e-02
3.040000000000000036e+00 3.777002482156357338e-02
3.050000000000000266e+00 1.520536454965377635e-02
3.060000000000000053e+00 -7.787900541714869521e-03
3.070000000000000284e+00 -2.988694124203380986e-02
3.080000000000000071e+00 -4.995885594340816749e-02
3.089999999999999858e+00 -6.671236325495674691e-02
3.100000000000000089e+00 -7.951834391016371351e-02
3.109999999999999876e+00 -8.706436285730616287e-02
3.120000000000000107e+00 -8.960126741915848403e-02
3.129999999999999893e+00 -8.582967092889352834e-02
3.140000000000000124e+00 -7.682301902541076311e-02
3.149999999999999911e+00 -6.193525167596631437e-02
3.160000000000000142e+00 -4.241418427973343841e-02
3.169999999999999929e+00 -1.853603207235459890e-02
3.180000000000000160e+00 8.452449397470288353e-03
3.189999999999999947e+00 3.758239919461146827e-02
3.200000000000000178e+00 6.758354277494978135e-02
3.209999999999999964e+00 9.726677597550061061e-02
3.220000000000000195e+00 1.252544442383375922e-01
3.229999999999999982e+00 1.506841139867383661e-01
3.240000000000000213e+00 1.719951968228291828e-01
3.250000000000000000e+00 1.890550615516561062e-01
3.260000000000000231e+00 2.003094890503516190e-01
3.270000000000000018e+00 2.062666668102965672e-01
3.280000000000000249e+00 2.060105675035143746e-01
3.290000000000000036e+00 2.002351091689072715e-01
3.300000000000000266e+00 1.889327490099342866e-01
3.310000000000000053e+00 1.728901781947092542e-01
3.320000000000000284e+00 1.528953538300443504e-01
3.330000000000000071e+00 1.298371408099674718e-01
3.339999999999999858e+00 1.049353427928738786e-01
3.350000000000000089e+00 7.926142953786688428e-02
3.359999999999999876e+00 5.395974143179461252e-02
3.370000000000000107e+00 3.037684878903917571e-02
3.379999999999999893e+00 9.175383434842497576e-03
3.390000000000000124e+00 -8.289601407951799686e-03
3.399999999999999911e+00 -2.179947718938796825e-02
3.410000000000000142e+00 -3.045676461333885615e-02
3.419999999999999929e+00 -3.430747855028542376e-02
3.430000000000000160e+00 -3.320560197247491435e-02
3.439999999999999947e+00 -2.737937161779920719e-02
3.450000000000000178e+00 -1.745152230968327264e-02
3.459999999999999964e+00 -3.841228669440389758e-03
3.470000000000000195e+00 1.230676002908667049e-02
3.479999999999999982e+00 3.029879293544528174e-02
3.490000000000000213e+00 4.890175017232353122e-02
3.500000000000000000e+00 6.705159809793111159e-02
3.510000000000000231e+00 8.381725590096636425e-02
3.520000000000000018e+00 9.800533821605389440e-02
3.530000000000000249e+00 1.090084720546907748e-01
3.540000000000000036e+00 1.159461058176021742e-01
3.550000000000000266e+00 1.184304603317472143e-01
3.560000000000000053e+00 1.162381383559920739e-01
3.570000000000000284e+00 1.091488266384524203e-01
3.580000000000000071e+00 9.770820885485032026e-02
3.589999999999999858e+00 8.189579318921727524e-02
3.600000000000000089e+00 6.287332903105563586e-02
3.609999999999999876e+00 4.093376507013636589e-02
3.620000000000000107e+00 1.745384414529914385e-02
3.629999999999999893e+00 -6.742452104190777007e-03
3.640000000000000124e+00 -3.050385006232337812e-02
3.649999999999999911e+00 -5.271132149102916720e-02
3.660000000000000142e+00 -7.242250511477493768e-02
3.669999999999999929e+00 -8.869194225369972373e-02
3.680000000000000160e+00 -1.006982359126291082e-01
3.689999999999999947e+00 -1.080805858565206112e-01
3.700000000000000178e+00 -1.100900991316945410e-01
3.709999999999999964e+00 -1.071720082144087538e-01
3.720000000000000195e+00 -9.868351891647672569e-02
3.729999999999999982e+00 -8.579424512134325997e-02
3.740000000000000213e+00 -6.823644286494684463e-02
3.750000000000000000e+00 -4.744198005875992913e-02
3.760000000000000231e+00 -2.384924216287385296e-02
3.770000000000000018e+00 1.270054549889097209e-03
3.780000000000000249e+00 2.697540894644234397e-02
3.790000000000000036e+00 5.211564830664671549e-02
3.800000000000000266e+00 7.570465765506663447e-02
3.810000000000000053e+00 9.663298586904384146e-02
3.820000000000000284e+00 1.143236944982881781e-01
3.830000000000000071e+00 1.276514796738626722e-01
3.839999999999999858e+00 1.367741683331741009e-01
3.850000000000000089e+00 1.405652368435436617e-01
3.859999999999999876e+00 1.398850501758875653e-01
