# [DEFAULT]
# # input and output specifications
# dataformat = QA
# outputtype = gr
# 
# # PDF calculation setup
# mode = xray
# wavelength = 
# composition = Cl4.0Cr1.0Na1.0
# bgscale = 1.0
# rpoly = 0.9
# qmaxinst = 28
# qmin = 0.0
# qmax = 22
# rmin = 0.0
# rmax = 30.0
# rstep = 0.01
# 
# # End of config --------------------------------------------------------------
# 
# #### start data
# #S 1
# #L r(Å)  G(Å$^$)
# 
0.000000000000000000e+00 0.000000000000000000e+00
1.000000000000000021e-02 -2.332984926641077424e-03
2.000000000000000042e-02 -4.812541463554684262e-03
2.999999999999999889e-02 -7.604970507108360471e-03
4.000000000000000083e-02 -1.077120795101321228e-02
5.000000000000000278e-02 -1.438884330267692878e-02
5.999999999999999778e-02 -1.841290468291623822e-02
7.000000000000000666e-02 -2.276208421011885821e-02
8.000000000000000167e-02 -2.726484673002893197e-02
8.999999999999999667e-02 -3.169984580591020396e-02
1.000000000000000056e-01 -3.574285305013153585e-02
1.100000000000000006e-01 -3.914644307730663630e-02
1.199999999999999956e-01 -4.141224974298049477e-02
1.300000000000000044e-01 -4.241349491000518529e-02
1.400000000000000133e-01 -4.157257582793325718e-02
1.499999999999999944e-01 -3.891714315917181588e-02
1.600000000000000033e-01 -3.404006458808368774e-02
1.700000000000000122e-01 -2.706612172336458552e-02
1.799999999999999933e-01 -1.794019700197966444e-02
1.900000000000000022e-01 -6.905135805735816354e-03
2.000000000000000111e-01 5.698214966103068262e-03
2.099999999999999922e-01 1.945017950863569059e-02
2.200000000000000011e-01 3.372906565447481714e-02
2.300000000000000100e-01 4.784618934785209859e-02
2.399999999999999911e-01 6.116537954564008756e-02
2.500000000000000000e-01 7.263231460300692555e-02
2.600000000000000089e-01 8.184432611958107617e-02
2.700000000000000178e-01 8.765767336874098759e-02
2.800000000000000266e-01 8.984033368092667060e-02
2.899999999999999800e-01 8.756095483258034828e-02
2.999999999999999889e-01 8.071601963788206657e-02
3.099999999999999978e-01 6.910686114945205349e-02
3.200000000000000067e-01 5.277456741318711786e-02
3.300000000000000155e-01 3.228352908309786023e-02
3.400000000000000244e-01 7.925014699345270253e-03
3.500000000000000333e-01 -1.910654428638388844e-02
3.599999999999999867e-01 -4.807263684552345179e-02
3.699999999999999956e-01 -7.754048961654094740e-02
3.800000000000000044e-01 -1.061137371643257193e-01
3.900000000000000133e-01 -1.325266384934960795e-01
4.000000000000000222e-01 -1.549998292977598502e-01
4.100000000000000311e-01 -1.724317636571517653e-01
4.199999999999999845e-01 -1.832771196003497305e-01
4.299999999999999933e-01 -1.864864334955210201e-01
4.400000000000000022e-01 -1.813735266021969661e-01
4.500000000000000111e-01 -1.669009975253752387e-01
4.600000000000000200e-01 -1.436582560921407792e-01
4.700000000000000289e-01 -1.107263535193103304e-01
4.799999999999999822e-01 -7.002620183872523829e-02
4.899999999999999911e-01 -2.104802963268165295e-02
5.000000000000000000e-01 3.349303937827900757e-02
5.100000000000000089e-01 9.277505919698439407e-02
5.200000000000000178e-01 1.542680489611265859e-01
5.300000000000000266e-01 2.159640101678756419e-01
5.400000000000000355e-01 2.753997012338170736e-01
5.500000000000000444e-01 3.302138501286316918e-01
5.600000000000000533e-01 3.777778493505898894e-01
5.700000000000000622e-01 4.163839161157247282e-01
5.799999999999999600e-01 4.430280051989060608e-01
5.899999999999999689e-01 4.575794854072881557e-01
5.999999999999999778e-01 4.565994759025041039e-01
6.099999999999999867e-01 4.418676247050187800e-01
6.199999999999999956e-01 4.104660314892847328e-01
6.300000000000000044e-01 3.651472924470882120e-01
6.400000000000000133e-01 3.049501891661087205e-01
6.500000000000000222e-01 2.325981594754071846e-01
6.600000000000000311e-01 1.493042608754551193e-01
6.700000000000000400e-01 5.781833168406567969e-02
6.800000000000000488e-01 -3.912569854854758278e-02
6.900000000000000577e-01 -1.384737234519764215e-01
7.000000000000000666e-01 -2.370938559288143233e-01
7.099999999999999645e-01 -3.312365039161466185e-01
7.199999999999999734e-01 -4.187134681320555663e-01
7.299999999999999822e-01 -4.947330900424127265e-01
7.399999999999999911e-01 -5.587780446006779256e-01
7.500000000000000000e-01 -6.064293303229152388e-01
7.600000000000000089e-01 -6.379013671317829148e-01
7.700000000000000178e-01 -6.505352483338222580e-01
7.800000000000000266e-01 -6.448344089863977668e-01
7.900000000000000355e-01 -6.205992806499209813e-01
8.000000000000000444e-01 -5.784711512976119518e-01
8.100000000000000533e-01 -5.207034784554309681e-01
8.200000000000000622e-01 -4.482222978681303371e-01
8.300000000000000711e-01 -3.650270695209575367e-01
8.399999999999999689e-01 -2.727268709778288280e-01
8.499999999999999778e-01 -1.757833872240844586e-01
8.599999999999999867e-01 -7.708923032247619322e-02
8.699999999999999956e-01 1.972169374518626533e-02
8.800000000000000044e-01 1.109363986531562013e-01
8.900000000000000133e-01 1.938357623147227149e-01
9.000000000000000222e-01 2.652103555454977113e-01
9.100000000000000311e-01 3.228332100506538516e-01
9.200000000000000400e-01 3.652342488353231276e-01
9.300000000000000488e-01 3.903969828763237393e-01
9.400000000000000577e-01 3.992841798086760874e-01
9.500000000000000666e-01 3.900719409898553147e-01
9.599999999999999645e-01 3.661361710148862136e-01
9.699999999999999734e-01 3.261290333789957918e-01
9.799999999999999822e-01 2.747609105756558812e-01
9.899999999999999911e-01 2.126988749846880911e-01
1.000000000000000000e+00 1.440572147137986203e-01
1.010000000000000009e+00 7.131992055364448635e-02
1.020000000000000018e+00 -1.947330288764485134e-03
1.030000000000000027e+00 -7.268997664337434328e-02
1.040000000000000036e+00 -1.376082259752197112e-01
1.050000000000000044e+00 -1.944341767895382267e-01
1.060000000000000053e+00 -2.398644631262311366e-01
1.070000000000000062e+00 -2.735114298020321355e-01
1.080000000000000071e+00 -2.919734663937040842e-01
1.090000000000000080e+00 -2.970578514899044897e-01
1.100000000000000089e+00 -2.861406436044940382e-01
1.110000000000000098e+00 -2.621743408508456774e-01
1.120000000000000107e+00 -2.246174363062584112e-01
1.130000000000000115e+00 -1.764159681945157154e-01
1.140000000000000124e+00 -1.191025418716048084e-01
1.150000000000000133e+00 -5.557661270294274314e-02
1.159999999999999920e+00 1.143160769387764272e-02
1.169999999999999929e+00 7.889333671019552185e-02
1.179999999999999938e+00 1.441001584964878846e-01
1.189999999999999947e+00 2.036436233120069161e-01
1.199999999999999956e+00 2.560708661841854528e-01
1.209999999999999964e+00 2.974335880156886991e-01
1.219999999999999973e+00 3.280248072461656728e-01
1.229999999999999982e+00 3.447109957409948411e-01
1.239999999999999991e+00 3.485158111784974477e-01
1.250000000000000000e+00 3.381590308934041000e-01
1.260000000000000009e+00 3.149909393500320287e-01
1.270000000000000018e+00 2.797944759337936960e-01
1.280000000000000027e+00 2.341513218996694179e-01
1.290000000000000036e+00 1.804535802392246979e-01
1.300000000000000044e+00 1.206491731226140562e-01
1.310000000000000053e+00 5.778053223359796292e-02
1.320000000000000062e+00 -5.568715461743046699e-03
1.330000000000000071e+00 -6.683735774494631299e-02
1.340000000000000080e+00 -1.227706491337592354e-01
1.350000000000000089e+00 -1.718853689395694051e-01
1.360000000000000098e+00 -2.111851797882642046e-01
1.370000000000000107e+00 -2.399067713776231459e-01
1.380000000000000115e+00 -2.563344612323482652e-01
1.390000000000000124e+00 -2.601202201045060836e-01
1.400000000000000133e+00 -2.513913408362693502e-01
1.409999999999999920e+00 -2.300968746105571949e-01
1.419999999999999929e+00 -1.981748898163818717e-01
1.429999999999999938e+00 -1.559758008212976388e-01
1.439999999999999947e+00 -1.066419952114016634e-01
1.449999999999999956e+00 -5.120676922200226300e-02
1.459999999999999964e+00 7.027470956709206719e-03
1.469999999999999973e+00 6.592777032737173748e-02
1.479999999999999982e+00 1.229529873357654429e-01
1.489999999999999991e+00 1.755534213000692900e-01
1.500000000000000000e+00 2.217494304886825640e-01
1.510000000000000009e+00 2.596269486397126958e-01
1.520000000000000018e+00 2.875181802093466077e-01
1.530000000000000027e+00 3.049432351396508811e-01
1.540000000000000036e+00 3.104137647995715565e-01
1.550000000000000044e+00 3.052146504775026803e-01
1.560000000000000053e+00 2.880946285197786838e-01
1.570000000000000062e+00 2.617552867472568989e-01
1.580000000000000071e+00 2.258246324168755037e-01
1.590000000000000080e+00 1.833129203243668570e-01
1.600000000000000089e+00 1.352487353092673150e-01
1.610000000000000098e+00 8.420867419495961514e-02
1.620000000000000107e+00 3.209935043918157177e-02
1.630000000000000115e+00 -1.883237015877654158e-02
1.640000000000000124e+00 -6.672813687837039764e-02
1.650000000000000133e+00 -1.095026815515133534e-01
1.660000000000000142e+00 -1.461925706780303480e-01
1.669999999999999929e+00 -1.747610495019518428e-01
1.679999999999999938e+00 -1.956775645914418937e-01
1.689999999999999947e+00 -2.069852812493089833e-01
1.699999999999999956e+00 -2.104069671075186054e-01
1.709999999999999964e+00 -2.050678223731902672e-01
1.719999999999999973e+00 -1.928626451773874928e-01
1.729999999999999982e+00 -1.742940550346012418e-01
1.739999999999999991e+00 -1.512111153088149806e-01
1.750000000000000000e+00 -1.250675165256533994e-01
1.760000000000000009e+00 -9.768778514679007929e-02
1.770000000000000018e+00 -7.075340619969078260e-02
1.780000000000000027e+00 -4.616773014817641962e-02
1.790000000000000036e+00 -2.506433332243692552e-02
1.800000000000000044e+00 -9.509009438848012308e-03
1.810000000000000053e+00 4.165623927571403284e-04
1.820000000000000062e+00 2.810136878870665884e-03
1.830000000000000071e+00 -1.565080542131409586e-03
1.840000000000000080e+00 -1.366689395201791876e-02
1.850000000000000089e+00 -3.247089696008906984e-02
1.860000000000000098e+00 -5.773563212001894124e-02
1.870000000000000107e+00 -8.830099951796253899e-02
1.880000000000000115e+00 -1.229805196394342243e-01
1.890000000000000124e+00 -1.604692543961092621e-01
1.900000000000000133e+00 -1.991951572115419344e-01
1.910000000000000142e+00 -2.376190155764197620e-01
1.919999999999999929e+00 -2.744740525347358351e-01
1.929999999999999938e+00 -3.079014831603408275e-01
1.939999999999999947e+00 -3.373913679742063243e-01
1.949999999999999956e+00 -3.612666719287246919e-01
1.959999999999999964e+00 -3.795493486517137471e-01
1.969999999999999973e+00 -3.913242825003754866e-01
1.979999999999999982e+00 -3.969158044550753495e-01
1.989999999999999991e+00 -3.964227336097865817e-01
2.000000000000000000e+00 -3.903703268973757745e-01
2.010000000000000231e+00 -3.797510951452593986e-01
2.020000000000000018e+00 -3.652951006804306955e-01
2.030000000000000249e+00 -3.484604884174821171e-01
2.040000000000000036e+00 -3.302503423358839618e-01
2.049999999999999822e+00 -3.120081490382825007e-01
2.060000000000000053e+00 -2.950194307015406858e-01
2.069999999999999840e+00 -2.801021815571564932e-01
2.080000000000000071e+00 -2.684197661107626809e-01
2.089999999999999858e+00 -2.603074893872951434e-01
2.100000000000000089e+00 -2.563203551952177861e-01
2.109999999999999876e+00 -2.564035789857698755e-01
2.120000000000000107e+00 -2.602673502719532461e-01
2.129999999999999893e+00 -2.674733145589608951e-01
2.140000000000000124e+00 -2.770018976215902207e-01
2.149999999999999911e+00 -2.879407643276842843e-01
2.160000000000000142e+00 -2.989827087489230761e-01
2.169999999999999929e+00 -3.085947688707306735e-01
2.180000000000000160e+00 -3.157042686637114293e-01
2.189999999999999947e+00 -3.184169477647110225e-01
2.200000000000000178e+00 -3.160098078761308660e-01
2.209999999999999964e+00 -3.068737926317608444e-01
2.220000000000000195e+00 -2.905207596460204766e-01
2.229999999999999982e+00 -2.662362747107868133e-01
2.240000000000000213e+00 -2.337181774177377602e-01
2.250000000000000000e+00 -1.934755040427211525e-01
2.260000000000000231e+00 -1.454656019390103416e-01
2.270000000000000018e+00 -9.135287275634690340e-02
2.280000000000000249e+00 -3.157500910336812072e-02
2.290000000000000036e+00 3.156025203934026413e-02
2.300000000000000266e+00 9.672256180733217190e-02
2.310000000000000053e+00 1.617010881094873287e-01
2.319999999999999840e+00 2.243445947252231398e-01
2.330000000000000071e+00 2.827584907331956443e-01
2.339999999999999858e+00 3.347128038571112740e-01
2.350000000000000089e+00 3.784332266032551795e-01
2.359999999999999876e+00 4.124967397313243911e-01
2.370000000000000107e+00 4.350851999809717263e-01
2.379999999999999893e+00 4.462656303592699714e-01
2.390000000000000124e+00 4.441470781345535634e-01
2.399999999999999911e+00 4.305751272957081821e-01
2.410000000000000142e+00 4.037571025889891141e-01
2.419999999999999929e+00 3.668015937752905353e-01
2.430000000000000160e+00 3.193073073283371754e-01
2.439999999999999947e+00 2.642273210448209397e-01
2.450000000000000178e+00 2.027902835539338033e-01
2.459999999999999964e+00 1.376679121795931771e-01
2.470000000000000195e+00 7.103694019475201293e-02
2.479999999999999982e+00 5.474157623597344230e-03
2.490000000000000213e+00 -5.686789427128333824e-02
2.500000000000000000e+00 -1.132661426140814942e-01
2.510000000000000231e+00 -1.625603786404803131e-01
2.520000000000000018e+00 -2.017084594423183275e-01
2.530000000000000249e+00 -2.311093582535823088e-01
2.540000000000000036e+00 -2.478612186847333476e-01
2.550000000000000266e+00 -2.534694934938687139e-01
2.560000000000000053e+00 -2.463869360128468911e-01
2.569999999999999840e+00 -2.282636368077337885e-01
2.580000000000000071e+00 -1.992976023905703997e-01
2.589999999999999858e+00 -1.611478511474334074e-01
2.600000000000000089e+00 -1.154390557345139900e-01
2.609999999999999876e+00 -6.390078096127753404e-02
2.620000000000000107e+00 -8.868075778451091351e-03
2.629999999999999893e+00 4.766918163336836267e-02
2.640000000000000124e+00 1.035849437677298368e-01
2.649999999999999911e+00 1.564193180499517111e-01
2.660000000000000142e+00 2.049475742323888794e-01
2.669999999999999929e+00 2.467000813900126488e-01
2.680000000000000160e+00 2.812216948221755164e-01
2.689999999999999947e+00 3.068300428360051235e-01
2.700000000000000178e+00 3.234865827930232252e-01
2.709999999999999964e+00 3.308045673245536000e-01
2.720000000000000195e+00 3.289756920319669153e-01
2.729999999999999982e+00 3.189667992957784248e-01
2.740000000000000213e+00 3.011757204369903684e-01
2.750000000000000000e+00 2.775570602759605543e-01
2.760000000000000231e+00 2.488270535126344551e-01
2.770000000000000018e+00 2.172367081342787276e-01
2.780000000000000249e+00 1.840504902248608077e-01
2.790000000000000036e+00 1.510878830929906491e-01
2.800000000000000266e+00 1.199610927026504431e-01
2.810000000000000053e+00 9.189366602860955802e-02
2.819999999999999840e+00 6.821166740408242390e-02
2.830000000000000071e+00 4.971955399756953359e-02
2.839999999999999858e+00 3.690942438114756113e-02
2.850000000000000089e+00 3.027936437688738200e-02
2.859999999999999876e+00 2.927101548338474288e-02
2.870000000000000107e+00 3.407253458315850914e-02
2.879999999999999893e+00 4.323887559884526111e-02
2.890000000000000124e+00 5.652866557563816785e-02
2.899999999999999911e+00 7.214168204482417079e-02
2.910000000000000142e+00 8.910444234197360813e-02
2.919999999999999929e+00 1.058911686914942585e-01
2.930000000000000160e+00 1.211058388721743262e-01
2.939999999999999947e+00 1.335009789128130397e-01
2.950000000000000178e+00 1.418809065585687201e-01
2.959999999999999964e+00 1.451868887387712803e-01
2.970000000000000195e+00 1.429677385547984958e-01
2.979999999999999982e+00 1.343118543055418224e-01
2.990000000000000213e+00 1.197982320687602797e-01
3.000000000000000000e+00 9.872803326702622728e-02
3.010000000000000231e+00 7.258789220001593545e-02
3.020000000000000018e+00 4.125648337767511692e-02
3.030000000000000249e+00 6.536846735192638341e-03
3.040000000000000036e+00 -3.077350984035057135e-02
3.050000000000000266e+00 -6.902533293136807468e-02
3.060000000000000053e+00 -1.068295661534457291e-01
3.070000000000000284e+00 -1.426281989274972295e-01
3.080000000000000071e+00 -1.750762682589057095e-01
3.089999999999999858e+00 -2.025969190084553895e-01
3.100000000000000089e+00 -2.245149697400962430e-01
3.109999999999999876e+00 -2.391607801081355456e-01
3.120000000000000107e+00 -2.469690252681321641e-01
3.129999999999999893e+00 -2.462098966782587939e-01
3.140000000000000124e+00 -2.383300529397597289e-01
3.149999999999999911e+00 -2.223841893980574580e-01
3.160000000000000142e+00 -1.999722133962064108e-01
3.169999999999999929e+00 -1.713049648761942045e-01
3.180000000000000160e+00 -1.379157163191103985e-01
3.189999999999999947e+00 -1.009182854725135803e-01
3.200000000000000178e+00 -6.181689378689959879e-02
3.209999999999999964e+00 -2.208126648738034312e-02
3.220000000000000195e+00 1.669865118670609341e-02
3.229999999999999982e+00 5.334213226163961319e-02
3.240000000000000213e+00 8.605884939991162441e-02
3.250000000000000000e+00 1.144576410875473016e-01
3.260000000000000231e+00 1.367117560534082121e-01
3.270000000000000018e+00 1.531787363853392703e-01
3.280000000000000249e+00 1.626834610163254424e-01
3.290000000000000036e+00 1.658358852259559091e-01
3.300000000000000266e+00 1.624561892366656324e-01
3.310000000000000053e+00 1.532703055459595509e-01
3.320000000000000284e+00 1.390248497534543048e-01
3.330000000000000071e+00 1.205432143060192474e-01
3.339999999999999858e+00 9.914320936976220300e-02
3.350000000000000089e+00 7.581540246996852639e-02
3.359999999999999876e+00 5.191886740826663627e-02
3.370000000000000107e+00 2.870805325247021561e-02
3.379999999999999893e+00 7.111676791644464327e-03
3.390000000000000124e+00 -1.153943185046633554e-02
3.399999999999999911e+00 -2.681662453237497468e-02
3.410000000000000142e+00 -3.776871521581116886e-02
3.419999999999999929e+00 -4.429218287079630945e-02
3.430000000000000160e+00 -4.614734266259232914e-02
3.439999999999999947e+00 -4.345384469931311971e-02
3.450000000000000178e+00 -3.673884229522869638e-02
3.459999999999999964e+00 -2.633200747727423158e-02
3.470000000000000195e+00 -1.330832713106569823e-02
3.479999999999999982e+00 1.729931833008066695e-03
3.490000000000000213e+00 1.757988049042659776e-02
3.500000000000000000e+00 3.327998006714910639e-02
3.510000000000000231e+00 4.790150151451746247e-02
3.520000000000000018e+00 6.034482870516241770e-02
3.530000000000000249e+00 7.001070402093778622e-02
3.540000000000000036e+00 7.608916988905750634e-02
3.550000000000000266e+00 7.822356742826536147e-02
3.560000000000000053e+00 7.622754185520468073e-02
3.570000000000000284e+00 6.994760901798917352e-02
3.580000000000000071e+00 5.992051523739738011e-02
3.589999999999999858e+00 4.623635150546172995e-02
3.600000000000000089e+00 2.998796529778257475e-02
3.609999999999999876e+00 1.162492167204581817e-02
3.620000000000000107e+00 -7.595243768550813054e-03
3.629999999999999893e+00 -2.671672396649137776e-02
3.640000000000000124e+00 -4.469365091562929604e-02
3.649999999999999911e+00 -6.034763816716921803e-02
3.660000000000000142e+00 -7.281581441416787315e-02
3.669999999999999929e+00 -8.117513028248386775e-02
3.680000000000000160e+00 -8.466593483501991257e-02
3.689999999999999947e+00 -8.302140481236985892e-02
3.700000000000000178e+00 -7.555177920543823533e-02
3.709999999999999964e+00 -6.284133601183003459e-02
3.720000000000000195e+00 -4.432450481943128046e-02
3.729999999999999982e+00 -2.131501280922511177e-02
3.740000000000000213e+00 6.337297108368393668e-03
3.750000000000000000e+00 3.708669377487629898e-02
3.760000000000000231e+00 7.035119274311145421e-02
3.770000000000000018e+00 1.047718849507262018e-01
3.780000000000000249e+00 1.392815548083915222e-01
3.790000000000000036e+00 1.726490984553363250e-01
3.800000000000000266e+00 2.038203192199933012e-01
3.810000000000000053e+00 2.315977968944959720e-01
3.820000000000000284e+00 2.554220937991087403e-01
3.830000000000000071e+00 2.740638416062911586e-01
3.839999999999999858e+00 2.877909601305629894e-01
3.850000000000000089e+00 2.953568076601371661e-01
3.859999999999999876e+00 2.977917504191333053e-01
