# [DEFAULT]
# # input and output specifications
# dataformat = QA
# outputtype = gr
# 
# # PDF calculation setup
# mode = xray
# wavelength = 
# composition = Cl4.0Cr1.0Na1.0
# bgscale = 1.0
# rpoly = 0.9
# qmaxinst = 28
# qmin = 0.0
# qmax = 22
# rmin = 0.0
# rmax = 30.0
# rstep = 0.01
# 
# # End of config --------------------------------------------------------------
# 
# #### start data
# #S 1
# #L r(Å)  G(Å$^$)
# 
0.000000000000000000e+00 0.000000000000000000e+00
1.000000000000000021e-02 -3.102017345980844984e-03
2.000000000000000042e-02 -6.310644229254543970e-03
2.999999999999999889e-02 -9.743465913950481033e-03
4.000000000000000083e-02 -1.343615468537015696e-02
5.000000000000000278e-02 -1.742663147590319331e-02
5.999999999999999778e-02 -2.165559115133503312e-02
7.000000000000000666e-02 -2.602703905715974750e-02
8.000000000000000167e-02 -3.036373832766540645e-02
8.999999999999999667e-02 -3.446104903468576175e-02
1.000000000000000056e-01 -3.799843792260840236e-02
1.100000000000000006e-01 -4.077141922441780697e-02
1.199999999999999956e-01 -4.229859511018851936e-02
1.300000000000000044e-01 -4.250658196641381864e-02
1.400000000000000133e-01 -4.085435629295580684e-02
1.499999999999999944e-01 -3.741525219631185867e-02
1.600000000000000033e-01 -3.183012702524106591e-02
1.700000000000000122e-01 -2.425829125109311979e-02
1.799999999999999933e-01 -1.468453015597831479e-02
1.900000000000000022e-01 -3.377868920327802265e-03
2.000000000000000111e-01 9.306628169363966377e-03
2.099999999999999922e-01 2.293035590945518426e-02
2.200000000000000011e-01 3.689149305852853361e-02
2.300000000000000100e-01 5.049208085274324576e-02
2.399999999999999911e-01 6.314607698788478329e-02
2.500000000000000000e-01 7.380567681961708315e-02
2.600000000000000089e-01 8.213137276898689609e-02
2.700000000000000178e-01 8.701454881684657361e-02
2.800000000000000266e-01 8.827794595003971012e-02
2.899999999999999800e-01 8.514211487301329151e-02
2.999999999999999889e-01 7.755152943373594399e-02
3.099999999999999978e-01 6.535282613287093922e-02
3.200000000000000067e-01 4.863106651169351452e-02
3.300000000000000155e-01 2.796802294409514444e-02
3.400000000000000244e-01 3.695587547507346929e-03
3.500000000000000333e-01 -2.301489588984863277e-02
3.599999999999999867e-01 -5.139140289205424567e-02
3.699999999999999956e-01 -8.006056677612222172e-02
3.800000000000000044e-01 -1.076187354801717150e-01
3.900000000000000133e-01 -1.328715084429893389e-01
4.000000000000000222e-01 -1.540717290581384291e-01
4.100000000000000311e-01 -1.701858567638580844e-01
4.199999999999999845e-01 -1.797268104753935725e-01
4.299999999999999933e-01 -1.817125463474851821e-01
4.400000000000000022e-01 -1.755146762508732750e-01
4.500000000000000111e-01 -1.601670981704610697e-01
4.600000000000000200e-01 -1.362889519878000832e-01
4.700000000000000289e-01 -1.030390463226751596e-01
4.799999999999999822e-01 -6.231918717989129441e-02
4.899999999999999911e-01 -1.370122941629280458e-02
5.000000000000000000e-01 4.016351332812094499e-02
5.100000000000000089e-01 9.841172650755528051e-02
5.200000000000000178e-01 1.585821484650443980e-01
5.300000000000000266e-01 2.186808184258344778e-01
5.400000000000000355e-01 2.763145078053927395e-01
5.500000000000000444e-01 3.291790476330649917e-01
5.600000000000000533e-01 3.747204147274303399e-01
5.700000000000000622e-01 4.113049402434113544e-01
5.799999999999999600e-01 4.360146934428956733e-01
5.899999999999999689e-01 4.487773902517679936e-01
5.999999999999999778e-01 4.462586334563891644e-01
6.099999999999999867e-01 4.302553905101186849e-01
6.199999999999999956e-01 3.979580774612244687e-01
6.300000000000000044e-01 3.521016294296190896e-01
6.400000000000000133e-01 2.917971299236536975e-01
6.500000000000000222e-01 2.197394993253218853e-01
6.600000000000000311e-01 1.371564497589353171e-01
6.700000000000000400e-01 4.676399581218712576e-02
6.800000000000000488e-01 -4.874686292148988631e-02
6.900000000000000577e-01 -1.463625772159691252e-01
7.000000000000000666e-01 -2.430345989638907633e-01
7.099999999999999645e-01 -3.350680548720930130e-01
7.199999999999999734e-01 -4.203685107507574292e-01
7.299999999999999822e-01 -4.942236432754013586e-01
7.399999999999999911e-01 -5.561905203747490312e-01
7.500000000000000000e-01 -6.019463958940310944e-01
7.600000000000000089e-01 -6.317547325174620587e-01
7.700000000000000178e-01 -6.430401939944699885e-01
7.800000000000000266e-01 -6.363415073119605969e-01
7.900000000000000355e-01 -6.115018236895456427e-01
8.000000000000000444e-01 -5.691927809201978716e-01
8.100000000000000533e-01 -5.116545854342987587e-01
8.200000000000000622e-01 -4.398419681244333246e-01
8.300000000000000711e-01 -3.576859691844240241e-01
8.399999999999999689e-01 -2.668196460663058711e-01
8.499999999999999778e-01 -1.716012009202730615e-01
8.599999999999999867e-01 -7.492140241651920607e-02
8.699999999999999956e-01 1.968610409692963734e-02
8.800000000000000044e-01 1.085476069181453007e-01
8.900000000000000133e-01 1.890226962215400264e-01
9.000000000000000222e-01 2.579601157824706892e-01
9.100000000000000311e-01 3.131969243070318321e-01
9.200000000000000400e-01 3.533140039153222500e-01
9.300000000000000488e-01 3.763522230412582048e-01
9.400000000000000577e-01 3.832974577965327367e-01
9.500000000000000666e-01 3.723828163759549947e-01
9.599999999999999645e-01 3.469683902699864375e-01
9.699999999999999734e-01 3.057659325360189695e-01
9.799999999999999822e-01 2.534393953529493482e-01
9.899999999999999911e-01 1.906917249984944329e-01
1.000000000000000000e+00 1.215933438415941897e-01
1.010000000000000009e+00 4.863299038558552279e-02
1.020000000000000018e+00 -2.465827410205994469e-02
1.030000000000000027e+00 -9.524430767654235019e-02
1.040000000000000036e+00 -1.598493585402459283e-01
1.050000000000000044e+00 -2.162357739464948470e-01
1.060000000000000053e+00 -2.611148887873225299e-01
1.070000000000000062e+00 -2.941307819859703132e-01
1.080000000000000071e+00 -3.118895836738148630e-01
1.090000000000000080e+00 -3.162245133110682671e-01
1.100000000000000089e+00 -3.045168620243340341e-01
1.110000000000000098e+00 -2.797354593948161994e-01
1.120000000000000107e+00 -2.413443042581325249e-01
1.130000000000000115e+00 -1.922987483436212619e-01
1.140000000000000124e+00 -1.341377423456724671e-01
1.150000000000000133e+00 -6.976864217547260050e-02
1.159999999999999920e+00 -1.929482579623165162e-03
1.169999999999999929e+00 6.633954057536553539e-02
1.179999999999999938e+00 1.323212549097291246e-01
1.189999999999999947e+00 1.925878978570758349e-01
1.199999999999999956e+00 2.456804600349156709e-01
1.209999999999999964e+00 2.876199044327814036e-01
1.219999999999999973e+00 3.186987551994476253e-01
1.229999999999999982e+00 3.357508674290407558e-01
1.239999999999999991e+00 3.398001116377274977e-01
1.250000000000000000e+00 3.295433566663593106e-01
1.260000000000000009e+00 3.063320229547323859e-01
1.270000000000000018e+00 2.709452138122549480e-01
1.280000000000000027e+00 2.249695489927716063e-01
1.290000000000000036e+00 1.708170909158527595e-01
1.300000000000000044e+00 1.104505601705041834e-01
1.310000000000000053e+00 4.695273248067310945e-02
1.320000000000000062e+00 -1.705864818281033202e-02
1.330000000000000071e+00 -7.897398761667773215e-02
1.340000000000000080e+00 -1.354765723581699000e-01
1.350000000000000089e+00 -1.850387583585196005e-01
1.360000000000000098e+00 -2.245859158578394910e-01
1.370000000000000107e+00 -2.533116718850733085e-01
1.380000000000000115e+00 -2.694305286226525431e-01
1.390000000000000124e+00 -2.725480392961507348e-01
1.400000000000000133e+00 -2.627570071265383223e-01
1.409999999999999920e+00 -2.399549634955054633e-01
1.419999999999999929e+00 -2.061012507697203011e-01
1.429999999999999938e+00 -1.614941388503708386e-01
1.439999999999999947e+00 -1.093595721192561626e-01
1.449999999999999956e+00 -5.069080202177428385e-02
1.459999999999999964e+00 1.108524574643368794e-02
1.469999999999999973e+00 7.381614633765756772e-02
1.479999999999999982e+00 1.348428303272665996e-01
1.489999999999999991e+00 1.915359234426672330e-01
1.500000000000000000e+00 2.418021250774881614e-01
1.510000000000000009e+00 2.836218724709656525e-01
1.520000000000000018e+00 3.152082505571598414e-01
1.530000000000000027e+00 3.359957732629557658e-01
1.540000000000000036e+00 3.443624467334165384e-01
1.550000000000000044e+00 3.415719426570126283e-01
1.560000000000000053e+00 3.262224318270676715e-01
1.570000000000000062e+00 3.010795783638732792e-01
1.580000000000000071e+00 2.656420793712865880e-01
1.590000000000000080e+00 2.230355806155903953e-01
1.600000000000000089e+00 1.742464455025639902e-01
1.610000000000000098e+00 1.219720867614620119e-01
1.620000000000000107e+00 6.817579237192358810e-02
1.630000000000000115e+00 1.523183027672431536e-02
1.640000000000000124e+00 -3.487633890689795235e-02
1.650000000000000133e+00 -7.991899304197580545e-02
1.660000000000000142e+00 -1.187934236031590596e-01
1.669999999999999929e+00 -1.492873664689900459e-01
1.679999999999999938e+00 -1.717815613765303340e-01
1.689999999999999947e+00 -1.841034865688254418e-01
1.699999999999999956e+00 -1.879728871756173869e-01
1.709999999999999964e+00 -1.823311555111904736e-01
1.719999999999999973e+00 -1.691141364226738109e-01
1.729999999999999982e+00 -1.487400277616564570e-01
1.739999999999999991e+00 -1.231259429672673239e-01
1.750000000000000000e+00 -9.376604297889677697e-02
1.760000000000000009e+00 -6.258114225902844385e-02
1.770000000000000018e+00 -3.140089762985485977e-02
1.780000000000000027e+00 -2.268948766338126435e-03
1.790000000000000036e+00 2.348235812477948020e-02
1.800000000000000044e+00 4.357779554075712908e-02
1.810000000000000053e+00 5.776407649200910460e-02
1.820000000000000062e+00 6.385827337410460158e-02
1.830000000000000071e+00 6.252089767658836061e-02
1.840000000000000080e+00 5.252541279735072066e-02
1.850000000000000089e+00 3.483478461599994608e-02
1.860000000000000098e+00 9.527854728932286590e-03
1.870000000000000107e+00 -2.227011734695543560e-02
1.880000000000000115e+00 -5.936720760986630846e-02
1.890000000000000124e+00 -1.004638163155028019e-01
1.900000000000000133e+00 -1.438027196993141577e-01
1.910000000000000142e+00 -1.877942515393608014e-01
1.919999999999999929e+00 -2.308548170391058474e-01
1.929999999999999938e+00 -2.709715007616010363e-01
1.939999999999999947e+00 -3.072846980252332827e-01
1.949999999999999956e+00 -3.378140051501850039e-01
1.959999999999999964e+00 -3.622816476062812874e-01
1.969999999999999973e+00 -3.794007264748104902e-01
1.979999999999999982e+00 -3.892210694992381259e-01
1.989999999999999991e+00 -3.915396202060809072e-01
2.000000000000000000e+00 -3.866028477409485520e-01
2.010000000000000231e+00 -3.752995349284037330e-01
2.020000000000000018e+00 -3.580649268786313955e-01
2.030000000000000249e+00 -3.365331569477049145e-01
2.040000000000000036e+00 -3.114176090814747000e-01
2.049999999999999822e+00 -2.845000902371674356e-01
2.060000000000000053e+00 -2.569172793575051905e-01
2.069999999999999840e+00 -2.300242222748849208e-01
2.080000000000000071e+00 -2.051276990122624932e-01
2.089999999999999858e+00 -1.830687802993336555e-01
2.100000000000000089e+00 -1.647879692562488063e-01
2.109999999999999876e+00 -1.507396021505257866e-01
2.120000000000000107e+00 -1.410976764695393570e-01
2.129999999999999893e+00 -1.359914565792651742e-01
2.140000000000000124e+00 -1.347443148407682922e-01
2.149999999999999911e+00 -1.371227283120449170e-01
2.160000000000000142e+00 -1.418527125694940827e-01
2.169999999999999929e+00 -1.482158703886558571e-01
2.180000000000000160e+00 -1.548305471373402631e-01
2.189999999999999947e+00 -1.604307301836509214e-01
2.200000000000000178e+00 -1.639139981860067152e-01
2.209999999999999964e+00 -1.638958105532574150e-01
2.220000000000000195e+00 -1.595082766522820938e-01
2.229999999999999982e+00 -1.498296142425603605e-01
2.240000000000000213e+00 -1.341647859087312100e-01
2.250000000000000000e+00 -1.124810706114582476e-01
2.260000000000000231e+00 -8.426884594398260930e-02
2.270000000000000018e+00 -5.051221771510576442e-02
2.280000000000000249e+00 -1.101609036757211953e-02
2.290000000000000036e+00 3.249325752258659661e-02
2.300000000000000266e+00 7.952299817422711636e-02
2.310000000000000053e+00 1.282234547085441267e-01
2.319999999999999840e+00 1.772744841702839913e-01
2.330000000000000071e+00 2.250265753690772752e-01
2.339999999999999858e+00 2.698171694569965195e-01
2.350000000000000089e+00 3.100837247737757152e-01
2.359999999999999876e+00 3.445253143942436647e-01
2.370000000000000107e+00 3.715410599425599814e-01
2.379999999999999893e+00 3.908076486798855442e-01
2.390000000000000124e+00 4.006352662416544641e-01
2.399999999999999911e+00 4.020323879838960113e-01
2.410000000000000142e+00 3.933082008244954686e-01
2.419999999999999929e+00 3.765302672647993232e-01
2.430000000000000160e+00 3.510124045026092321e-01
2.439999999999999947e+00 3.188188794814321159e-01
2.450000000000000178e+00 2.805556198818165425e-01
2.459999999999999964e+00 2.381262696867099127e-01
2.470000000000000195e+00 1.930064343333752486e-01
2.479999999999999982e+00 1.470305352173352786e-01
2.490000000000000213e+00 1.018528488882542160e-01
2.500000000000000000e+00 5.939042347455866788e-02
2.510000000000000231e+00 2.074007633514841908e-02
2.520000000000000018e+00 -1.197841796865094406e-02
2.530000000000000249e+00 -3.871430503768609477e-02
2.540000000000000036e+00 -5.743127394309807676e-02
2.550000000000000266e+00 -6.891920281327257314e-02
2.560000000000000053e+00 -7.205163961895977298e-02
2.569999999999999840e+00 -6.783649116276695146e-02
2.580000000000000071e+00 -5.636774901073484528e-02
2.589999999999999858e+00 -3.875270604920934975e-02
2.600000000000000089e+00 -1.611049204085236719e-02
2.609999999999999876e+00 1.032969082524073413e-02
2.620000000000000107e+00 3.893284054606104688e-02
2.629999999999999893e+00 6.823220346990034602e-02
2.640000000000000124e+00 9.675358720971233284e-02
2.649999999999999911e+00 1.226647025944309494e-01
2.660000000000000142e+00 1.451620148253753573e-01
2.669999999999999929e+00 1.624388985386500950e-01
2.680000000000000160e+00 1.742531281532302412e-01
2.689999999999999947e+00 1.794341308531758050e-01
2.700000000000000178e+00 1.780619612213509839e-01
2.709999999999999964e+00 1.699691129424014402e-01
2.720000000000000195e+00 1.554484641003643364e-01
2.729999999999999982e+00 1.353454258734717031e-01
2.740000000000000213e+00 1.101791384608828694e-01
2.750000000000000000e+00 8.148143740291360904e-02
2.760000000000000231e+00 5.011181239428788570e-02
2.770000000000000018e+00 1.772427612773822339e-02
2.780000000000000249e+00 -1.433963004707954070e-02
2.790000000000000036e+00 -4.481465535719868915e-02
2.800000000000000266e+00 -7.216745601856479342e-02
2.810000000000000053e+00 -9.554830713891521166e-02
2.819999999999999840e+00 -1.137940041646520739e-01
2.830000000000000071e+00 -1.263222902951949556e-01
2.839999999999999858e+00 -1.327874523726740030e-01
2.850000000000000089e+00 -1.327895230529451409e-01
2.859999999999999876e+00 -1.269622920748559314e-01
2.870000000000000107e+00 -1.151073756845630985e-01
2.879999999999999893e+00 -9.867509091314574654e-02
2.890000000000000124e+00 -7.779017566520800286e-02
2.899999999999999911e+00 -5.422217937315890190e-02
2.910000000000000142e+00 -2.876107326685395718e-02
2.919999999999999929e+00 -2.880135659114086040e-03
2.930000000000000160e+00 2.220664563316686324e-02
2.939999999999999947e+00 4.531623428172771445e-02
2.950000000000000178e+00 6.535974707328782995e-02
2.959999999999999964e+00 8.134499379882435821e-02
2.970000000000000195e+00 9.279525198752029691e-02
2.979999999999999982e+00 9.884989504963517803e-02
2.990000000000000213e+00 9.991208660264520869e-02
3.000000000000000000e+00 9.528428734970044445e-02
3.010000000000000231e+00 8.616698988788923375e-02
3.020000000000000018e+00 7.232211694178673766e-02
3.030000000000000249e+00 5.524480810269240261e-02
3.040000000000000036e+00 3.547089876131613584e-02
3.050000000000000266e+00 1.435926424279040242e-02
3.060000000000000053e+00 -7.029850482331167008e-03
3.070000000000000284e+00 -2.744322491117229604e-02
3.080000000000000071e+00 -4.581005552281375293e-02
3.089999999999999858e+00 -6.090938908109301553e-02
3.100000000000000089e+00 -7.216591859946012988e-02
3.109999999999999876e+00 -7.834418945979831905e-02
3.120000000000000107e+00 -7.971521829558261829e-02
3.129999999999999893e+00 -7.506647441796213127e-02
3.140000000000000124e+00 -6.545046324965080042e-02
3.149999999999999911e+00 -5.028796286278115757e-02
3.160000000000000142e+00 -3.079061647761742807e-02
3.169999999999999929e+00 -7.258422086377305099e-03
3.180000000000000160e+00 1.910168553609940811e-02
3.189999999999999947e+00 4.734227788836797152e-02
3.200000000000000178e+00 7.623494811531274229e-02
3.209999999999999964e+00 1.046447856470338750e-01
3.220000000000000195e+00 1.312413613580314387e-01
3.229999999999999982e+00 1.552272173320335125e-01
3.240000000000000213e+00 1.751002419479349703e-01
3.250000000000000000e+00 1.907792379472341981e-01
3.260000000000000231e+00 2.007808204815657305e-01
3.270000000000000018e+00 2.056391925719665281e-01
3.280000000000000249e+00 2.045012456407532542e-01
3.290000000000000036e+00 1.980710238313197202e-01
3.300000000000000266e+00 1.863751433687775294e-01
3.310000000000000053e+00 1.702014273267889455e-01
3.320000000000000284e+00 1.503330029069142315e-01
3.330000000000000071e+00 1.276535002234339689e-01
3.339999999999999858e+00 1.033411920508654491e-01
3.350000000000000089e+00 7.845378985135159633e-02
3.359999999999999876e+00 5.407127753725278485e-02
3.370000000000000107e+00 3.151215687407325772e-02
3.379999999999999893e+00 1.137347994765955904e-02
3.390000000000000124e+00 -5.038387106102576452e-03
3.399999999999999911e+00 -1.755444062852282508e-02
3.410000000000000142e+00 -2.533201896038403400e-02
3.419999999999999929e+00 -2.845464927300925956e-02
3.430000000000000160e+00 -2.681571177729648661e-02
3.439999999999999947e+00 -2.067417302958364511e-02
3.450000000000000178e+00 -1.066071578493883731e-02
3.459999999999999964e+00 2.779009666551289677e-03
3.470000000000000195e+00 1.852971867017731353e-02
3.479999999999999982e+00 3.587729519027855335e-02
3.490000000000000213e+00 5.364785971850392216e-02
3.500000000000000000e+00 7.077496439740205147e-02
3.510000000000000231e+00 8.639418230866124926e-02
3.520000000000000018e+00 9.933953880183392371e-02
3.530000000000000249e+00 1.090608977617746195e-01
3.540000000000000036e+00 1.147234787443498910e-01
3.550000000000000266e+00 1.159904992937718093e-01
3.560000000000000053e+00 1.126817985554592200e-01
3.570000000000000284e+00 1.046262776470830991e-01
3.580000000000000071e+00 9.239091293002507643e-02
3.589999999999999858e+00 7.600566542861315888e-02
3.600000000000000089e+00 5.661873918638857250e-02
3.609999999999999876e+00 3.457420894614375573e-02
3.620000000000000107e+00 1.120400618383784151e-02
3.629999999999999893e+00 -1.264075708799327138e-02
3.640000000000000124e+00 -3.585875990943407365e-02
3.649999999999999911e+00 -5.733898044519588483e-02
3.660000000000000142e+00 -7.618697286751664743e-02
3.669999999999999929e+00 -9.149247742124426430e-02
3.680000000000000160e+00 -1.024814684888534777e-01
3.689999999999999947e+00 -1.088386209413124833e-01
3.700000000000000178e+00 -1.098658440590010582e-01
3.709999999999999964e+00 -1.060442428820253663e-01
3.720000000000000195e+00 -9.678925297051028942e-02
3.729999999999999982e+00 -8.328116419895487121e-02
3.740000000000000213e+00 -6.531307379624012865e-02
3.750000000000000000e+00 -4.430381460136974953e-02
3.760000000000000231e+00 -2.073211608045919668e-02
3.770000000000000018e+00 4.150478220550036547e-03
3.780000000000000249e+00 2.939571370912267417e-02
3.790000000000000036e+00 5.387591045846451543e-02
3.800000000000000266e+00 7.662873872729357438e-02
3.810000000000000053e+00 9.657186402413639459e-02
3.820000000000000284e+00 1.131732073061234023e-01
3.830000000000000071e+00 1.253418897238771923e-01
3.839999999999999858e+00 1.332845737835766375e-01
3.850000000000000089e+00 1.359217019537085347e-01
3.859999999999999876e+00 1.341500444590706109e-01
