# [DEFAULT]
# # input and output specifications
# dataformat = QA
# outputtype = gr
# 
# # PDF calculation setup
# mode = xray
# wavelength = 
# composition = Cl4.0Cr1.0Na1.0
# bgscale = 1.0
# rpoly = 0.9
# qmaxinst = 28
# qmin = 0.0
# qmax = 22
# rmin = 0.0
# rmax = 30.0
# rstep = 0.01
# 
# # End of config --------------------------------------------------------------
# 
# #### start data
# #S 1
# #L r(Å)  G(Å$^$)
# 
0.000000000000000000e+00 0.000000000000000000e+00
1.000000000000000021e-02 -4.911964586009134014e-03
2.000000000000000042e-02 -9.824541541661969621e-03
2.999999999999999889e-02 -1.472667647402545188e-02
4.000000000000000083e-02 -1.958850686932124205e-02
5.000000000000000278e-02 -2.434589165659906476e-02
5.999999999999999778e-02 -2.890603765742686543e-02
7.000000000000000666e-02 -3.314026544704614524e-02
8.000000000000000167e-02 -3.686512717301700798e-02
8.999999999999999667e-02 -3.992768438705861234e-02
1.000000000000000056e-01 -4.203152111507995475e-02
1.100000000000000006e-01 -4.309010339668128270e-02
1.199999999999999956e-01 -4.268696586346506366e-02
1.300000000000000044e-01 -4.088692111904852766e-02
1.400000000000000133e-01 -3.726585799289489076e-02
1.499999999999999944e-01 -3.200881358182973424e-02
1.600000000000000033e-01 -2.489355958393717205e-02
1.700000000000000122e-01 -1.615854592869912440e-02
1.799999999999999933e-01 -5.888791194721078662e-03
1.900000000000000022e-01 5.594290627506808694e-03
2.000000000000000111e-01 1.791740142177227976e-02
2.099999999999999922e-01 3.061641253711398780e-02
2.200000000000000011e-01 4.316808526091128057e-02
2.300000000000000100e-01 5.488591025832631476e-02
2.399999999999999911e-01 6.533652286481769766e-02
2.500000000000000000e-01 7.353956873232785074e-02
2.600000000000000089e-01 7.932773522748469419e-02
2.700000000000000178e-01 8.173223012902211537e-02
2.800000000000000266e-01 8.071780576206930014e-02
2.899999999999999800e-01 7.566765245648122973e-02
2.999999999999999889e-01 6.664268189440912538e-02
3.099999999999999978e-01 5.360218009396423844e-02
3.200000000000000067e-01 3.672582961627317982e-02
3.300000000000000155e-01 1.660118136425380031e-02
3.400000000000000244e-01 -6.373559267365819583e-03
3.500000000000000333e-01 -3.114849917163618059e-02
3.599999999999999867e-01 -5.693580027826865980e-02
3.699999999999999956e-01 -8.257751787436823365e-02
3.800000000000000044e-01 -1.067583004860907653e-01
3.900000000000000133e-01 -1.285163826526523057e-01
4.000000000000000222e-01 -1.463031538929968345e-01
4.100000000000000311e-01 -1.593035754942623283e-01
4.199999999999999845e-01 -1.662654518487300948e-01
4.299999999999999933e-01 -1.664223418661866793e-01
4.400000000000000022e-01 -1.593140991547405405e-01
4.500000000000000111e-01 -1.441956387252272820e-01
4.600000000000000200e-01 -1.216970203919721660e-01
4.700000000000000289e-01 -9.119488020115493199e-02
4.799999999999999822e-01 -5.439654738819868496e-02
4.899999999999999911e-01 -1.105223671299771643e-02
5.000000000000000000e-01 3.653791959622867958e-02
5.100000000000000089e-01 8.753417572440397310e-02
5.200000000000000178e-01 1.398338127053770918e-01
5.300000000000000266e-01 1.916837828361585283e-01
5.400000000000000355e-01 2.410657649367439759e-01
5.500000000000000444e-01 2.860328550958749494e-01
5.600000000000000533e-01 3.244558126561593037e-01
5.700000000000000622e-01 3.550239275808069750e-01
5.799999999999999600e-01 3.753332664893924697e-01
5.899999999999999689e-01 3.854366261664473603e-01
5.999999999999999778e-01 3.826270547758048868e-01
6.099999999999999867e-01 3.685374072508563748e-01
6.199999999999999956e-01 3.409594986598288857e-01
6.300000000000000044e-01 3.022903122918449426e-01
6.400000000000000133e-01 2.519560222769066105e-01
6.500000000000000222e-01 1.923028273297033297e-01
6.600000000000000311e-01 1.244963793175233313e-01
6.700000000000000400e-01 5.089381430939856482e-02
6.800000000000000488e-01 -2.620146368122240263e-02
6.900000000000000577e-01 -1.041870476145168312e-01
7.000000000000000666e-01 -1.805801585038149248e-01
7.099999999999999645e-01 -2.522234162835647053e-01
7.199999999999999734e-01 -3.175512158159137233e-01
7.299999999999999822e-01 -3.725991907044408080e-01
7.399999999999999911e-01 -4.172505252850659541e-01
7.500000000000000000e-01 -4.479904571452734130e-01
7.600000000000000089e-01 -4.652767585093156577e-01
7.700000000000000178e-01 -4.671631347146860125e-01
7.800000000000000266e-01 -4.543367492540756891e-01
7.900000000000000355e-01 -4.269023878490513790e-01
8.000000000000000444e-01 -3.856851253888898268e-01
8.100000000000000533e-01 -3.327276349864705662e-01
8.200000000000000622e-01 -2.691451987273175139e-01
8.300000000000000711e-01 -1.982378772335146033e-01
8.399999999999999689e-01 -1.217555709482906617e-01
8.499999999999999778e-01 -4.316426394456684273e-02
8.599999999999999867e-01 3.476007110572321840e-02
8.699999999999999956e-01 1.093343604900958443e-01
8.800000000000000044e-01 1.773141112164395294e-01
8.900000000000000133e-01 2.367432728360145955e-01
9.000000000000000222e-01 2.850413266200384488e-01
9.100000000000000311e-01 3.206332726041588033e-01
9.200000000000000400e-01 3.425700868909350993e-01
9.300000000000000488e-01 3.494544187383039069e-01
9.400000000000000577e-01 3.424401567638720723e-01
9.500000000000000666e-01 3.203391757534601592e-01
9.599999999999999645e-01 2.862621051151639784e-01
9.699999999999999734e-01 2.395135653028438727e-01
9.799999999999999822e-01 1.841758922912438423e-01
9.899999999999999911e-01 1.212391277249363630e-01
1.000000000000000000e+00 5.420350740022449737e-02
1.010000000000000009e+00 -1.454813485072454018e-02
1.020000000000000018e+00 -8.200479211829243831e-02
1.030000000000000027e+00 -1.455176751212625408e-01
1.040000000000000036e+00 -2.023014939759996134e-01
1.050000000000000044e+00 -2.506036948755276939e-01
1.060000000000000053e+00 -2.876414107388873820e-01
1.070000000000000062e+00 -3.134386435557802719e-01
1.080000000000000071e+00 -3.251661150787604759e-01
1.090000000000000080e+00 -3.247871970838436262e-01
1.100000000000000089e+00 -3.102432728818788621e-01
1.110000000000000098e+00 -2.844158305177767465e-01
1.120000000000000107e+00 -2.471249691668327697e-01
1.130000000000000115e+00 -2.011628187704881388e-01
1.140000000000000124e+00 -1.481209725714429937e-01
1.150000000000000133e+00 -9.070906412535807706e-02
1.159999999999999920e+00 -3.143250571172184066e-02
1.169999999999999929e+00 2.689886161034663742e-02
1.179999999999999938e+00 8.198294327947749927e-02
1.189999999999999947e+00 1.306840280016167144e-01
1.199999999999999956e+00 1.719832316362859548e-01
1.209999999999999964e+00 2.022975705785393374e-01
1.219999999999999973e+00 2.222424854142716899e-01
1.229999999999999982e+00 2.291001139150981858e-01
1.239999999999999991e+00 2.240840305294686252e-01
1.250000000000000000e+00 2.062504283078522016e-01
1.260000000000000009e+00 1.770645118195220136e-01
1.270000000000000018e+00 1.374570623956083981e-01
1.280000000000000027e+00 8.909224031437998348e-02
1.290000000000000036e+00 3.427772679113465920e-02
1.300000000000000044e+00 -2.497049916199055308e-02
1.310000000000000053e+00 -8.590164640324332579e-02
1.320000000000000062e+00 -1.458854976690989180e-01
1.330000000000000071e+00 -2.027653393505396973e-01
1.340000000000000080e+00 -2.533271420341404179e-01
1.350000000000000089e+00 -2.964578414690227093e-01
1.360000000000000098e+00 -3.293165598272077554e-01
1.370000000000000107e+00 -3.514102787466413802e-01
1.380000000000000115e+00 -3.612182504177570697e-01
1.390000000000000124e+00 -3.585897111790399827e-01
1.400000000000000133e+00 -3.437975354191928901e-01
1.409999999999999920e+00 -3.169426598854473975e-01
1.419999999999999929e+00 -2.800034438721589192e-01
1.429999999999999938e+00 -2.334558932559818722e-01
1.439999999999999947e+00 -1.803632915385760815e-01
1.449999999999999956e+00 -1.218652401025829696e-01
1.459999999999999964e+00 -6.110750711578934180e-02
1.469999999999999973e+00 -2.548298715759900190e-04
1.479999999999999982e+00 5.829285653823115809e-02
1.489999999999999991e+00 1.120256120999314903e-01
1.500000000000000000e+00 1.590722370088623883e-01
1.510000000000000009e+00 1.975888598424932474e-01
1.520000000000000018e+00 2.259817366348471357e-01
1.530000000000000027e+00 2.438321919755191969e-01
1.540000000000000036e+00 2.496942050320823947e-01
1.550000000000000044e+00 2.448820726109526835e-01
1.560000000000000053e+00 2.281575618555093388e-01
1.570000000000000062e+00 2.022190570328649961e-01
1.580000000000000071e+00 1.666797665011396645e-01
1.590000000000000080e+00 1.245293353184088875e-01
1.600000000000000089e+00 7.676387169154527679e-02
1.610000000000000098e+00 2.593708990639913281e-02
1.620000000000000107e+00 -2.607338397635818733e-02
1.630000000000000115e+00 -7.703579026097762128e-02
1.640000000000000124e+00 -1.250959446892121463e-01
1.650000000000000133e+00 -1.681671517523838644e-01
1.660000000000000142e+00 -2.052559734323388951e-01
1.669999999999999929e+00 -2.342977983440411860e-01
1.679999999999999938e+00 -2.557076065460775482e-01
1.689999999999999947e+00 -2.674633635637138629e-01
1.699999999999999956e+00 -2.712314285979391393e-01
1.709999999999999964e+00 -2.660431187222274119e-01
1.719999999999999973e+00 -2.537464668855403116e-01
1.729999999999999982e+00 -2.347554189886076337e-01
1.739999999999999991e+00 -2.108824410048734666e-01
1.750000000000000000e+00 -1.835364334866644853e-01
1.760000000000000009e+00 -1.545183411522872974e-01
1.770000000000000018e+00 -1.255342818763033608e-01
1.780000000000000027e+00 -9.848571422944454867e-02
1.790000000000000036e+00 -7.460045773970275240e-02
1.800000000000000044e+00 -5.597963620229734483e-02
1.810000000000000053e+00 -4.283790025227968146e-02
1.820000000000000062e+00 -3.717131413725503070e-02
1.830000000000000071e+00 -3.834162902870190404e-02
1.840000000000000080e+00 -4.744148522855419492e-02
1.850000000000000089e+00 -6.354596392670375238e-02
1.860000000000000098e+00 -8.653131628936683306e-02
1.870000000000000107e+00 -1.153101047670950507e-01
1.880000000000000115e+00 -1.487351811710908855e-01
1.890000000000000124e+00 -1.855370743069521544e-01
1.900000000000000133e+00 -2.240694294643794382e-01
1.910000000000000142e+00 -2.627643924420015598e-01
1.919999999999999929e+00 -3.001775450597910511e-01
1.929999999999999938e+00 -3.343114644751576381e-01
1.939999999999999947e+00 -3.644299870791003482e-01
1.949999999999999956e+00 -3.885783477646486128e-01
1.959999999999999964e+00 -4.065483402071662367e-01
1.969999999999999973e+00 -4.170743591972975173e-01
1.979999999999999982e+00 -4.202305362544209166e-01
1.989999999999999991e+00 -4.158155366549071141e-01
2.000000000000000000e+00 -4.040653611473524753e-01
2.010000000000000231e+00 -3.858546360618084203e-01
2.020000000000000018e+00 -3.615824399002523504e-01
2.030000000000000249e+00 -3.328721457904504355e-01
2.040000000000000036e+00 -3.003858263899573111e-01
2.049999999999999822e+00 -2.659193202761709895e-01
2.060000000000000053e+00 -2.305681729484844456e-01
2.069999999999999840e+00 -1.957306823688561570e-01
2.080000000000000071e+00 -1.627204382359187518e-01
2.089999999999999858e+00 -1.324469830963432293e-01
2.100000000000000089e+00 -1.059194126582827522e-01
2.109999999999999876e+00 -8.369801956998149106e-02
2.120000000000000107e+00 -6.607083552381107228e-02
2.129999999999999893e+00 -5.332931666193246878e-02
2.140000000000000124e+00 -4.491168069215335096e-02
2.149999999999999911e+00 -4.082530804294722676e-02
2.160000000000000142e+00 -3.984614055981881148e-02
2.169999999999999929e+00 -4.159460095938749546e-02
2.180000000000000160e+00 -4.464242293960703906e-02
2.189999999999999947e+00 -4.804679762344886418e-02
2.200000000000000178e+00 -5.064134027489886752e-02
2.209999999999999964e+00 -5.124281202252015804e-02
2.220000000000000195e+00 -4.892687951434066679e-02
2.229999999999999982e+00 -4.279578178467440680e-02
2.240000000000000213e+00 -3.210407938259806498e-02
2.250000000000000000e+00 -1.665631006441260775e-02
2.260000000000000231e+00 4.123286661495540947e-03
2.270000000000000018e+00 2.955888453278853953e-02
2.280000000000000249e+00 5.996874969293752855e-02
2.290000000000000036e+00 9.398944674719023062e-02
2.300000000000000266e+00 1.313679771718581357e-01
2.310000000000000053e+00 1.705700424545349148e-01
2.319999999999999840e+00 2.106089798282745063e-01
2.330000000000000071e+00 2.500905288912081414e-01
2.339999999999999858e+00 2.876695966493753032e-01
2.350000000000000089e+00 3.220164453865506093e-01
2.359999999999999876e+00 3.520125757425327517e-01
2.370000000000000107e+00 3.762954222071243082e-01
2.379999999999999893e+00 3.945041461579572584e-01
2.390000000000000124e+00 4.051981995108662749e-01
2.399999999999999911e+00 4.090998804061509175e-01
2.410000000000000142e+00 4.047542898557662805e-01
2.419999999999999929e+00 3.937747689267822593e-01
2.430000000000000160e+00 3.755170820987721592e-01
2.439999999999999947e+00 3.516233014965142734e-01
2.450000000000000178e+00 3.225174325457364488e-01
2.459999999999999964e+00 2.897255412701594812e-01
2.470000000000000195e+00 2.544141572947081209e-01
2.479999999999999982e+00 2.180537616931974565e-01
2.490000000000000213e+00 1.819967366834731592e-01
2.500000000000000000e+00 1.477714109229804340e-01
2.510000000000000231e+00 1.163130793196323759e-01
2.520000000000000018e+00 8.929885528556873175e-02
2.530000000000000249e+00 6.683638342140531263e-02
2.540000000000000036e+00 5.052733067516471804e-02
2.550000000000000266e+00 3.979061558915044511e-02
2.560000000000000053e+00 3.550169711630989100e-02
2.569999999999999840e+00 3.687286581728655560e-02
2.580000000000000071e+00 4.380496695878095814e-02
2.589999999999999858e+00 5.540118289164475129e-02
2.600000000000000089e+00 7.074833609417896518e-02
2.609999999999999876e+00 8.882481041465492555e-02
2.620000000000000107e+00 1.083235409193978732e-01
2.629999999999999893e+00 1.280088536747750194e-01
2.640000000000000124e+00 1.467367275331176446e-01
2.649999999999999911e+00 1.629616717980115759e-01
2.660000000000000142e+00 1.761103729226291548e-01
2.669999999999999929e+00 1.846869275647740061e-01
2.680000000000000160e+00 1.885689041109213371e-01
2.689999999999999947e+00 1.868236952190398814e-01
2.700000000000000178e+00 1.795872034425720354e-01
2.709999999999999964e+00 1.667808715084953819e-01
2.720000000000000195e+00 1.487202204810711137e-01
2.729999999999999982e+00 1.261678378268678014e-01
2.740000000000000213e+00 9.964296059306303188e-02
2.750000000000000000e+00 7.045382602494677793e-02
2.760000000000000231e+00 3.942983904994359912e-02
2.770000000000000018e+00 7.938445502159142964e-03
2.780000000000000249e+00 -2.277287248751350829e-02
2.790000000000000036e+00 -5.168837196845886550e-02
2.800000000000000266e+00 -7.743010481578434245e-02
2.810000000000000053e+00 -9.932053183191991153e-02
2.819999999999999840e+00 -1.163443230190453620e-01
2.830000000000000071e+00 -1.280318776050866914e-01
2.839999999999999858e+00 -1.341098796330597864e-01
2.850000000000000089e+00 -1.342444589850712855e-01
2.859999999999999876e+00 -1.290346967828548685e-01
2.870000000000000107e+00 -1.183029514822024897e-01
2.879999999999999893e+00 -1.033699752997732368e-01
2.890000000000000124e+00 -8.432453067913690814e-02
2.899999999999999911e+00 -6.276490065236491056e-02
2.910000000000000142e+00 -3.936487159568646116e-02
2.919999999999999929e+00 -1.544637641176341107e-02
2.930000000000000160e+00 7.934497257600509057e-03
2.939999999999999947e+00 2.972302689371457418e-02
2.950000000000000178e+00 4.895989708728973322e-02
2.959999999999999964e+00 6.476408326311623720e-02
2.970000000000000195e+00 7.669898251069014183e-02
2.979999999999999982e+00 8.399833004366459577e-02
2.990000000000000213e+00 8.698503789985047308e-02
3.000000000000000000e+00 8.502696739888426780e-02
3.010000000000000231e+00 7.914104247079115084e-02
3.020000000000000018e+00 6.908043898361095059e-02
3.030000000000000249e+00 5.612277852761012736e-02
3.040000000000000036e+00 4.068561515647025478e-02
3.050000000000000266e+00 2.392716143293473555e-02
3.060000000000000053e+00 6.724446975439011057e-03
3.070000000000000284e+00 -9.862626894247153095e-03
3.080000000000000071e+00 -2.493061226181861670e-02
3.089999999999999858e+00 -3.745841280020222736e-02
3.100000000000000089e+00 -4.694353431111080582e-02
3.109999999999999876e+00 -5.236462870947184572e-02
3.120000000000000107e+00 -5.391682383785009053e-02
3.129999999999999893e+00 -5.060859191375725874e-02
3.140000000000000124e+00 -4.328447452177511257e-02
3.149999999999999911e+00 -3.147787203899395092e-02
3.160000000000000142e+00 -1.617564276833648867e-02
3.169999999999999929e+00 2.366000353890757024e-03
3.180000000000000160e+00 2.315609969452266451e-02
3.189999999999999947e+00 4.541043484096958516e-02
3.200000000000000178e+00 6.811660703820207607e-02
3.209999999999999964e+00 9.034557992072925203e-02
3.220000000000000195e+00 1.110017629045819826e-01
3.229999999999999982e+00 1.294457543080845541e-01
3.240000000000000213e+00 1.444472181366797947e-01
3.250000000000000000e+00 1.559655059694056711e-01
3.260000000000000231e+00 1.628000159204989472e-01
3.270000000000000018e+00 1.654192993857874217e-01
3.280000000000000249e+00 1.631568079395218640e-01
3.290000000000000036e+00 1.566221315504190692e-01
3.300000000000000266e+00 1.458784623365450839e-01
3.310000000000000053e+00 1.316090328627434469e-01
3.320000000000000284e+00 1.144905548269818107e-01
3.330000000000000071e+00 9.529318328907214475e-02
3.339999999999999858e+00 7.499463865075151059e-02
3.350000000000000089e+00 5.451799112682646081e-02
3.359999999999999876e+00 3.472472623004678460e-02
3.370000000000000107e+00 1.676027538086220098e-02
3.379999999999999893e+00 1.058222001032882702e-03
3.390000000000000124e+00 -1.126978093658399793e-02
3.399999999999999911e+00 -2.014275272256547955e-02
3.410000000000000142e+00 -2.486963037324453618e-02
3.419999999999999929e+00 -2.557167342641766469e-02
3.430000000000000160e+00 -2.219637030107799239e-02
3.439999999999999947e+00 -1.500703464379188855e-02
3.450000000000000178e+00 -4.574584855010149081e-03
3.459999999999999964e+00 8.680400017385344474e-03
3.470000000000000195e+00 2.379226303157862266e-02
3.479999999999999982e+00 4.010925700289662277e-02
3.490000000000000213e+00 5.663989965196566945e-02
3.500000000000000000e+00 7.243383389911636772e-02
3.510000000000000231e+00 8.677826251615740338e-02
3.520000000000000018e+00 9.865508102050346562e-02
3.530000000000000249e+00 1.076171494853536276e-01
3.540000000000000036e+00 1.129489391449464974e-01
3.550000000000000266e+00 1.143785910354989943e-01
3.560000000000000053e+00 1.117637061463653825e-01
3.570000000000000284e+00 1.049644707019963402e-01
3.580000000000000071e+00 9.448330878633824648e-02
3.589999999999999858e+00 8.034050104415621507e-02
3.600000000000000089e+00 6.353593396524997994e-02
3.609999999999999876e+00 4.434355556813648208e-02
3.620000000000000107e+00 2.391646070167992993e-02
3.629999999999999893e+00 2.953104185827762698e-03
3.640000000000000124e+00 -1.760273620544384326e-02
3.649999999999999911e+00 -3.683310679732764575e-02
3.660000000000000142e+00 -5.398476078602391925e-02
3.669999999999999929e+00 -6.830652322852474867e-02
3.680000000000000160e+00 -7.916211653745865162e-02
3.689999999999999947e+00 -8.629345817465310098e-02
3.700000000000000178e+00 -8.914316330403614097e-02
3.709999999999999964e+00 -8.810747533547801102e-02
3.720000000000000195e+00 -8.273788871026617475e-02
3.729999999999999982e+00 -7.399771080068374973e-02
3.740000000000000213e+00 -6.175770882008035229e-02
3.750000000000000000e+00 -4.716944783233858324e-02
3.760000000000000231e+00 -3.065649338921470901e-02
3.770000000000000018e+00 -1.323254101856867135e-02
3.780000000000000249e+00 4.315906291117592268e-03
3.790000000000000036e+00 2.107948627118411480e-02
3.800000000000000266e+00 3.628639526969871382e-02
3.810000000000000053e+00 4.907138571827285994e-02
3.820000000000000284e+00 5.903713758137409812e-02
3.830000000000000071e+00 6.532505401390692468e-02
3.839999999999999858e+00 6.815146544079338231e-02
3.850000000000000089e+00 6.668911553329245900e-02
3.859999999999999876e+00 6.171190678583261813e-02
