# [DEFAULT]
# # input and output specifications
# dataformat = QA
# outputtype = gr
# 
# # PDF calculation setup
# mode = xray
# wavelength = 
# composition = Cl4.0Cr1.0Na1.0
# bgscale = 1.0
# rpoly = 0.9
# qmaxinst = 28
# qmin = 0.0
# qmax = 22
# rmin = 0.0
# rmax = 30.0
# rstep = 0.01
# 
# # End of config --------------------------------------------------------------
# 
# #### start data
# #S 1
# #L r(Å)  G(Å$^$)
# 
0.000000000000000000e+00 0.000000000000000000e+00
1.000000000000000021e-02 -1.635086666231525465e-03
2.000000000000000042e-02 -3.444586475360781469e-03
2.999999999999999889e-02 -5.629131624926230447e-03
4.000000000000000083e-02 -8.268261439070282576e-03
5.000000000000000278e-02 -1.146934678026772028e-02
5.999999999999999778e-02 -1.520047927784818655e-02
7.000000000000000666e-02 -1.939484459062465818e-02
8.000000000000000167e-02 -2.389093953129032069e-02
8.999999999999999667e-02 -2.846080846532669101e-02
1.000000000000000056e-01 -3.278740633989449260e-02
1.100000000000000006e-01 -3.659618962516853619e-02
1.199999999999999956e-01 -3.939062964713941489e-02
1.300000000000000044e-01 -4.100452514494208611e-02
1.400000000000000133e-01 -4.084862367884173340e-02
1.499999999999999944e-01 -3.891255626364122783e-02
1.600000000000000033e-01 -3.476290203713196247e-02
1.700000000000000122e-01 -2.849244498168169298e-02
1.799999999999999933e-01 -2.001534213521466432e-02
1.900000000000000022e-01 -9.545569866597316752e-03
2.000000000000000111e-01 2.598203464957085304e-03
2.099999999999999922e-01 1.602471531232148305e-02
2.200000000000000011e-01 3.011544843303763999e-02
2.300000000000000100e-01 4.421053990803876232e-02
2.399999999999999911e-01 5.765282655191680816e-02
2.500000000000000000e-01 6.941520896987539435e-02
2.600000000000000089e-01 7.905620762587607653e-02
2.700000000000000178e-01 8.543885438831921864e-02
2.800000000000000266e-01 8.829392108458339328e-02
2.899999999999999800e-01 8.677374265775254780e-02
2.999999999999999889e-01 8.073937548581611168e-02
3.099999999999999978e-01 6.996203506273931949e-02
3.200000000000000067e-01 5.444673846120153676e-02
3.300000000000000155e-01 3.472730332482342613e-02
3.400000000000000244e-01 1.105493795570746188e-02
3.500000000000000333e-01 -1.539291899019692121e-02
3.599999999999999867e-01 -4.392425655078320557e-02
3.699999999999999956e-01 -7.310148324637483208e-02
3.800000000000000044e-01 -1.015722724501758323e-01
3.900000000000000133e-01 -1.280514840990077952e-01
4.000000000000000222e-01 -1.507835965983423121e-01
4.100000000000000311e-01 -1.686450497440956930e-01
4.199999999999999845e-01 -1.800877935571066624e-01
4.299999999999999933e-01 -1.840391944560486326e-01
4.400000000000000022e-01 -1.797875809028710858e-01
4.500000000000000111e-01 -1.662696459370968938e-01
4.600000000000000200e-01 -1.440370280213288667e-01
4.700000000000000289e-01 -1.121384414497230003e-01
4.799999999999999822e-01 -7.245936216630649573e-02
4.899999999999999911e-01 -2.444708773166167845e-02
5.000000000000000000e-01 2.920505041979191974e-02
5.100000000000000089e-01 8.771974335189500205e-02
5.200000000000000178e-01 1.485780826975485469e-01
5.300000000000000266e-01 2.098043283678808768e-01
5.400000000000000355e-01 2.689406325393430830e-01
5.500000000000000444e-01 3.236355650135882001e-01
5.600000000000000533e-01 3.712631629334806616e-01
5.700000000000000622e-01 4.101001242015381854e-01
5.799999999999999600e-01 4.371424720497245064e-01
5.899999999999999689e-01 4.522233463178589874e-01
5.999999999999999778e-01 4.518990284136096269e-01
6.099999999999999867e-01 4.379041327786115101e-01
6.199999999999999956e-01 4.073044124866943561e-01
6.300000000000000044e-01 3.628139408723867199e-01
6.400000000000000133e-01 3.034452645831769435e-01
6.500000000000000222e-01 2.318943548953458500e-01
6.600000000000000311e-01 1.493497338013325959e-01
6.700000000000000400e-01 5.854221538814416426e-02
6.800000000000000488e-01 -3.780585203174566949e-02
6.900000000000000577e-01 -1.366525625137912092e-01
7.000000000000000666e-01 -2.348591073939488849e-01
7.099999999999999645e-01 -3.286808388120994184e-01
7.199999999999999734e-01 -4.159059571149779089e-01
7.299999999999999822e-01 -4.917379713881796510e-01
7.399999999999999911e-01 -5.556285701219237927e-01
7.500000000000000000e-01 -6.031392058296272118e-01
7.600000000000000089e-01 -6.344572408932024343e-01
7.700000000000000178e-01 -6.468969403011748387e-01
7.800000000000000266e-01 -6.409391317314068193e-01
7.900000000000000355e-01 -6.163633142747713123e-01
8.000000000000000444e-01 -5.737927870472386838e-01
8.100000000000000533e-01 -5.154773153527845153e-01
8.200000000000000622e-01 -4.423315238819818251e-01
8.300000000000000711e-01 -3.583735907445517732e-01
8.399999999999999689e-01 -2.652128857586528721e-01
8.499999999999999778e-01 -1.673477255132650998e-01
8.599999999999999867e-01 -6.769302841386699854e-02
8.699999999999999956e-01 3.007474829030374122e-02
8.800000000000000044e-01 1.221972102959644757e-01
8.900000000000000133e-01 2.059108296344684397e-01
9.000000000000000222e-01 2.779518715293113895e-01
9.100000000000000311e-01 3.360436432502789672e-01
9.200000000000000400e-01 3.786742628108643594e-01
9.300000000000000488e-01 4.037687305899141377e-01
9.400000000000000577e-01 4.122817322987636368e-01
9.500000000000000666e-01 4.023215660606923039e-01
9.599999999999999645e-01 3.773045176854296079e-01
9.699999999999999734e-01 3.358107990057741521e-01
9.799999999999999822e-01 2.826312704882272819e-01
9.899999999999999911e-01 2.184026583767230134e-01
1.000000000000000000e+00 1.473193856512611255e-01
1.010000000000000009e+00 7.189076900154268979e-02
1.020000000000000018e+00 -4.238237349229058600e-03
1.030000000000000027e+00 -7.794644282585827533e-02
1.040000000000000036e+00 -1.458486827185521140e-01
1.050000000000000044e+00 -2.055970908948236420e-01
1.060000000000000053e+00 -2.537867328600284522e-01
1.070000000000000062e+00 -2.899717076940416249e-01
1.080000000000000071e+00 -3.106233789734797468e-01
1.090000000000000080e+00 -3.175393617671313229e-01
1.100000000000000089e+00 -3.079606413670565312e-01
1.110000000000000098e+00 -2.848687974753763008e-01
1.120000000000000107e+00 -2.476296435325696932e-01
1.130000000000000115e+00 -1.992264341693509022e-01
1.140000000000000124e+00 -1.411693928387574848e-01
1.150000000000000133e+00 -7.639837132379749540e-02
1.159999999999999920e+00 -7.693836086485585091e-03
1.169999999999999929e+00 6.186828716552136148e-02
1.179999999999999938e+00 1.294750065097525216e-01
1.189999999999999947e+00 1.916528403619383869e-01
1.199999999999999956e+00 2.468256478699910328e-01
1.209999999999999964e+00 2.909470315114295325e-01
1.219999999999999973e+00 3.242068315868826267e-01
1.229999999999999982e+00 3.433461164288303391e-01
1.239999999999999991e+00 3.493175740598316037e-01
1.250000000000000000e+00 3.407271006359161580e-01
1.260000000000000009e+00 3.188729028654188613e-01
1.270000000000000018e+00 2.844764753858910478e-01
1.280000000000000027e+00 2.390770478302383928e-01
1.290000000000000036e+00 1.850825750745067610e-01
1.300000000000000044e+00 1.244073468231326890e-01
1.310000000000000053e+00 6.018897502363056845e-02
1.320000000000000062e+00 -5.004306944606459057e-03
1.330000000000000071e+00 -6.846371992840008525e-02
1.340000000000000080e+00 -1.269002314278204757e-01
1.350000000000000089e+00 -1.786819138254802375e-01
1.360000000000000098e+00 -2.207171207646873023e-01
1.370000000000000107e+00 -2.521151638079913715e-01
1.380000000000000115e+00 -2.710398385076573935e-01
1.390000000000000124e+00 -2.770260191512124992e-01
1.400000000000000133e+00 -2.701059225138855435e-01
1.409999999999999920e+00 -2.501105086247120690e-01
1.419999999999999929e+00 -2.189519478525737417e-01
1.429999999999999938e+00 -1.768562629788726359e-01
1.439999999999999947e+00 -1.270345202483901814e-01
1.449999999999999956e+00 -7.039450317187022355e-02
1.459999999999999964e+00 -1.038232383729315728e-02
1.469999999999999973e+00 5.092119748735257634e-02
1.479999999999999982e+00 1.108328079822665513e-01
1.489999999999999991e+00 1.667618037811467446e-01
1.500000000000000000e+00 2.165956047712984667e-01
1.510000000000000009e+00 2.583152139930290914e-01
1.520000000000000018e+00 2.901219223219171917e-01
1.530000000000000027e+00 3.114151457163924497e-01
1.540000000000000036e+00 3.205657904986728424e-01
1.550000000000000044e+00 3.187754254075941818e-01
1.560000000000000053e+00 3.046322794924547495e-01
1.570000000000000062e+00 2.808282922190129538e-01
1.580000000000000071e+00 2.468339694091780112e-01
1.590000000000000080e+00 2.057087130719378876e-01
1.600000000000000089e+00 1.583879682144882506e-01
1.610000000000000098e+00 1.075133133749803932e-01
1.620000000000000107e+00 5.498874512624736532e-02
1.630000000000000115e+00 3.133261905415692106e-03
1.640000000000000124e+00 -4.611689857566549089e-02
1.650000000000000133e+00 -9.059555297356249037e-02
1.660000000000000142e+00 -1.292153766579333118e-01
1.669999999999999929e+00 -1.598412137957809231e-01
1.679999999999999938e+00 -1.828219801220551943e-01
1.689999999999999947e+00 -1.960751632181443604e-01
1.699999999999999956e+00 -2.012474338466709034e-01
1.709999999999999964e+00 -1.973360462152854156e-01
1.719999999999999973e+00 -1.862037444170751566e-01
1.729999999999999982e+00 -1.682681740524697156e-01
1.739999999999999991e+00 -1.453761281723351395e-01
1.750000000000000000e+00 -1.189699954292296885e-01
1.760000000000000009e+00 -9.089585733258813416e-02
1.770000000000000018e+00 -6.290089605560360286e-02
1.780000000000000027e+00 -3.693761571391229737e-02
1.790000000000000036e+00 -1.425725385939828616e-02
1.800000000000000044e+00 2.985786792949872252e-03
1.810000000000000053e+00 1.458558615680768250e-02
1.820000000000000062e+00 1.850314556277025263e-02
1.830000000000000071e+00 1.540810396955257476e-02
1.840000000000000080e+00 4.193028641545368598e-03
1.850000000000000089e+00 -1.418395941216041463e-02
1.860000000000000098e+00 -3.958935904404151801e-02
1.870000000000000107e+00 -7.091142281460313668e-02
1.880000000000000115e+00 -1.069867533441384022e-01
1.890000000000000124e+00 -1.465427419142413812e-01
1.900000000000000133e+00 -1.879289105277262562e-01
1.910000000000000142e+00 -2.296122976062961729e-01
1.919999999999999929e+00 -2.701630887118933178e-01
1.929999999999999938e+00 -3.076803529307191032e-01
1.939999999999999947e+00 -3.414581284387573912e-01
1.949999999999999956e+00 -3.696918051022153318e-01
1.959999999999999964e+00 -3.922317284315606223e-01
1.969999999999999973e+00 -4.079833722377519956e-01
1.979999999999999982e+00 -4.171152939572815299e-01
1.989999999999999991e+00 -4.195658113152500590e-01
2.000000000000000000e+00 -4.157052255585922396e-01
2.010000000000000231e+00 -4.064534526670265380e-01
2.020000000000000018e+00 -3.923779764547777882e-01
2.030000000000000249e+00 -3.749995405164812667e-01
2.040000000000000036e+00 -3.551572186627940941e-01
2.049999999999999822e+00 -3.343903628424781393e-01
2.060000000000000053e+00 -3.138825451415851453e-01
2.069999999999999840e+00 -2.947021788064625447e-01
2.080000000000000071e+00 -2.780514002059976675e-01
2.089999999999999858e+00 -2.645004666979178798e-01
2.100000000000000089e+00 -2.547654458858272242e-01
2.109999999999999876e+00 -2.490220389678514112e-01
2.120000000000000107e+00 -2.471895047046388239e-01
2.129999999999999893e+00 -2.490769347038238879e-01
2.140000000000000124e+00 -2.538304559236141955e-01
2.149999999999999911e+00 -2.608232512481054588e-01
2.160000000000000142e+00 -2.687843407244465133e-01
2.169999999999999929e+00 -2.765132534085627536e-01
2.180000000000000160e+00 -2.828247245198458604e-01
2.189999999999999947e+00 -2.860737403985080807e-01
2.200000000000000178e+00 -2.853831194124422099e-01
2.209999999999999964e+00 -2.792212311219022802e-01
2.220000000000000195e+00 -2.669345048168230705e-01
2.229999999999999982e+00 -2.477062148057034008e-01
2.240000000000000213e+00 -2.210532223836973176e-01
2.250000000000000000e+00 -1.872504951060335043e-01
2.260000000000000231e+00 -1.460343817816935896e-01
2.270000000000000018e+00 -9.879338294829620448e-02
2.280000000000000249e+00 -4.566807894568446213e-02
2.290000000000000036e+00 1.124904432141259417e-02
2.300000000000000266e+00 7.100535893417667110e-02
2.310000000000000053e+00 1.315032929871375045e-01
2.319999999999999840e+00 1.909437857247039405e-01
2.330000000000000071e+00 2.474980975198474709e-01
2.339999999999999858e+00 2.991530607821348275e-01
2.350000000000000089e+00 3.441847790222264392e-01
2.359999999999999876e+00 3.811845056369254636e-01
2.370000000000000107e+00 4.083804414346008937e-01
2.379999999999999893e+00 4.256380689253805860e-01
2.390000000000000124e+00 4.310937687133876151e-01
2.399999999999999911e+00 4.262209662441531766e-01
2.410000000000000142e+00 4.091954732286224861e-01
2.419999999999999929e+00 3.826932290748093490e-01
2.430000000000000160e+00 3.461243465838829136e-01
2.439999999999999947e+00 3.020811026951849554e-01
2.450000000000000178e+00 2.514886385549151560e-01
2.459999999999999964e+00 1.967083735449444981e-01
2.470000000000000195e+00 1.396174065070301673e-01
2.479999999999999982e+00 8.249054610581585401e-02
2.490000000000000213e+00 2.730247313781901386e-02
2.500000000000000000e+00 -2.355331585471225758e-02
2.510000000000000231e+00 -6.888471501276076381e-02
2.520000000000000018e+00 -1.060240292143010410e-01
2.530000000000000249e+00 -1.351133432387232047e-01
2.540000000000000036e+00 -1.535877670240755055e-01
2.550000000000000266e+00 -1.625953659495634473e-01
2.560000000000000053e+00 -1.607260106215426254e-01
2.569999999999999840e+00 -1.493203784320069338e-01
2.580000000000000071e+00 -1.284955106224630328e-01
2.589999999999999858e+00 -9.965048731003245397e-02
2.600000000000000089e+00 -6.417818315675884178e-02
2.609999999999999876e+00 -2.357724455015267756e-02
2.620000000000000107e+00 2.010476650200070797e-02
2.629999999999999893e+00 6.511200431176016046e-02
2.640000000000000124e+00 1.095605618550317406e-01
2.649999999999999911e+00 1.512597447115366922e-01
2.660000000000000142e+00 1.891166835712959904e-01
2.669999999999999929e+00 2.209260657800768690e-01
2.680000000000000160e+00 2.462819511915768089e-01
2.689999999999999947e+00 2.636875438287813456e-01
2.700000000000000178e+00 2.731201607920508145e-01
2.709999999999999964e+00 2.742549731232194477e-01
2.720000000000000195e+00 2.672968312541806890e-01
2.729999999999999982e+00 2.531449873693079056e-01
2.740000000000000213e+00 2.322225452511223476e-01
2.750000000000000000e+00 2.063128717112313049e-01
2.760000000000000231e+00 1.761718409720152145e-01
2.770000000000000018e+00 1.438288084845698311e-01
2.780000000000000249e+00 1.105741775935508431e-01
2.790000000000000036e+00 7.803425183359601058e-02
2.800000000000000266e+00 4.780505736328151400e-02
2.810000000000000053e+00 2.099222873634638831e-02
2.819999999999999840e+00 -1.112837663995121240e-03
2.830000000000000071e+00 -1.775946265009798949e-02
2.839999999999999858e+00 -2.848188162723840067e-02
2.850000000000000089e+00 -3.278088974548369616e-02
2.859999999999999876e+00 -3.122674916997061553e-02
2.870000000000000107e+00 -2.358041202246202728e-02
2.879999999999999893e+00 -1.129803281508264846e-02
2.890000000000000124e+00 5.477373510221593064e-03
2.899999999999999911e+00 2.492155871391858388e-02
2.910000000000000142e+00 4.616570016926440506e-02
2.919999999999999929e+00 6.766306951340630982e-02
2.930000000000000160e+00 8.808779305346066402e-02
2.939999999999999947e+00 1.061751955605713393e-01
2.950000000000000178e+00 1.207398383254024987e-01
2.959999999999999964e+00 1.307031667744644188e-01
2.970000000000000195e+00 1.355558908696322673e-01
2.979999999999999982e+00 1.343516768813871332e-01
2.990000000000000213e+00 1.275562138012122093e-01
3.000000000000000000e+00 1.144014843243621460e-01
3.010000000000000231e+00 9.624019494887678383e-02
3.020000000000000018e+00 7.282452560880574299e-02
3.030000000000000249e+00 4.583895909053839479e-02
3.040000000000000036e+00 1.591401179800019591e-02
3.050000000000000266e+00 -1.540611927704688480e-02
3.060000000000000053e+00 -4.689010369247902099e-02
3.070000000000000284e+00 -7.708932900409239120e-02
3.080000000000000071e+00 -1.047532987123592496e-01
3.089999999999999858e+00 -1.284342858858723568e-01
3.100000000000000089e+00 -1.474465169852427759e-01
3.109999999999999876e+00 -1.602764880828345118e-01
3.120000000000000107e+00 -1.672234018819083179e-01
3.129999999999999893e+00 -1.667361050593813288e-01
3.140000000000000124e+00 -1.600360527565524993e-01
3.149999999999999911e+00 -1.462784798831344713e-01
3.160000000000000142e+00 -1.268596419841055978e-01
3.169999999999999929e+00 -1.019763206709749515e-01
3.180000000000000160e+00 -7.299735632262022156e-02
3.189999999999999947e+00 -4.093629828532405202e-02
3.200000000000000178e+00 -7.162014371583132720e-03
3.209999999999999964e+00 2.699394650088838069e-02
3.220000000000000195e+00 6.006416519323964920e-02
3.229999999999999982e+00 9.099267229493079867e-02
3.240000000000000213e+00 1.181154258377282440e-01
3.250000000000000000e+00 1.411128461399390466e-01
3.260000000000000231e+00 1.582894402849785442e-01
3.270000000000000018e+00 1.700172984170487678e-01
3.280000000000000249e+00 1.752208033135508047e-01
3.290000000000000036e+00 1.745009421090784607e-01
3.300000000000000266e+00 1.677206917812951448e-01
3.310000000000000053e+00 1.555914761320107420e-01
3.320000000000000284e+00 1.388430438281188228e-01
3.330000000000000071e+00 1.182885157388151309e-01
3.339999999999999858e+00 9.518192005133209455e-02
3.350000000000000089e+00 7.051096808142216787e-02
3.359999999999999876e+00 4.554573799650676880e-02
3.370000000000000107e+00 2.154481574091749591e-02
3.379999999999999893e+00 -6.494816226264746133e-04
3.390000000000000124e+00 -1.971131034450848002e-02
3.399999999999999911e+00 -3.526643217684013315e-02
3.410000000000000142e+00 -4.637401726082512193e-02
3.419999999999999929e+00 -5.295558976877319524e-02
3.430000000000000160e+00 -5.477761905462565778e-02
3.439999999999999947e+00 -5.196210676113979104e-02
3.450000000000000178e+00 -4.503695811053816389e-02
3.459999999999999964e+00 -3.431696183228044594e-02
3.470000000000000195e+00 -2.087928911046045555e-02
3.479999999999999982e+00 -5.299145195974027701e-03
3.490000000000000213e+00 1.120822477633959952e-02
3.500000000000000000e+00 2.770949285898029885e-02
3.510000000000000231e+00 4.325296963127660266e-02
3.520000000000000018e+00 5.674873588421976145e-02
3.530000000000000249e+00 6.756951155069114423e-02
3.540000000000000036e+00 7.488843328424829582e-02
3.550000000000000266e+00 7.831178433051576293e-02
3.560000000000000053e+00 7.761411017097112619e-02
3.570000000000000284e+00 7.258972751644750254e-02
3.580000000000000071e+00 6.372904794822625840e-02
3.589999999999999858e+00 5.104716808736518840e-02
3.600000000000000089e+00 3.560629254838612590e-02
3.609999999999999876e+00 1.775113535572402437e-02
3.620000000000000107e+00 -1.261128501268694770e-03
3.629999999999999893e+00 -2.058025175381526448e-02
3.640000000000000124e+00 -3.914892017286341480e-02
3.649999999999999911e+00 -5.586008325649136075e-02
3.660000000000000142e+00 -6.983900274995225033e-02
3.669999999999999929e+00 -8.017941566784346497e-02
3.680000000000000160e+00 -8.611132365750923112e-02
3.689999999999999947e+00 -8.732514654384358754e-02
3.700000000000000178e+00 -8.311812725909373256e-02
3.709999999999999964e+00 -7.398328209274064593e-02
3.720000000000000195e+00 -5.932920176126919160e-02
3.729999999999999982e+00 -4.035671945883205491e-02
3.740000000000000213e+00 -1.685924881321523849e-02
3.750000000000000000e+00 9.718378354590270080e-03
3.760000000000000231e+00 3.888105144527991691e-02
3.770000000000000018e+00 6.934863958061605882e-02
3.780000000000000249e+00 1.001422327805346624e-01
3.790000000000000036e+00 1.300988357349451285e-01
3.800000000000000266e+00 1.582207399711583473e-01
3.810000000000000053e+00 1.833779760768605438e-01
3.820000000000000284e+00 2.050122403838730845e-01
3.830000000000000071e+00 2.219663346034770612e-01
3.839999999999999858e+00 2.344452757166244905e-01
3.850000000000000089e+00 2.412785527690194387e-01
3.859999999999999876e+00 2.433890638828662134e-01
