# [DEFAULT]
# # input and output specifications
# dataformat = QA
# outputtype = gr
# 
# # PDF calculation setup
# mode = xray
# wavelength = 
# composition = Cl4.0Cr1.0Na1.0
# bgscale = 1.0
# rpoly = 0.9
# qmaxinst = 28
# qmin = 0.0
# qmax = 22
# rmin = 0.0
# rmax = 30.0
# rstep = 0.01
# 
# # End of config --------------------------------------------------------------
# 
# #### start data
# #S 1
# #L r(Å)  G(Å$^$)
# 
0.000000000000000000e+00 0.000000000000000000e+00
1.000000000000000021e-02 -5.424974545822334321e-03
2.000000000000000042e-02 -1.082944516787804137e-02
2.999999999999999889e-02 -1.617637975011319146e-02
4.000000000000000083e-02 -2.142196034261403814e-02
5.000000000000000278e-02 -2.647978474415092418e-02
5.999999999999999778e-02 -3.124761108986051639e-02
7.000000000000000666e-02 -3.558639021604157598e-02
8.000000000000000167e-02 -3.930592399836482093e-02
8.999999999999999667e-02 -4.225895966076918114e-02
1.000000000000000056e-01 -4.414491150078437426e-02
1.100000000000000006e-01 -4.489806082420750438e-02
1.199999999999999956e-01 -4.410214023844187536e-02
1.300000000000000044e-01 -4.185129102772153220e-02
1.400000000000000133e-01 -3.773150227129723477e-02
1.499999999999999944e-01 -3.195541100998283007e-02
1.600000000000000033e-01 -2.432079521625524904e-02
1.700000000000000122e-01 -1.508873889914565114e-02
1.799999999999999933e-01 -4.366249448986976936e-03
1.900000000000000022e-01 7.505507363537384027e-03
2.000000000000000111e-01 2.013857811061603442e-02
2.099999999999999922e-01 3.305007556189095558e-02
2.200000000000000011e-01 4.571629663880405481e-02
2.300000000000000100e-01 5.743234647238105312e-02
2.399999999999999911e-01 6.778121041564316718e-02
2.500000000000000000e-01 7.576578244782371241e-02
2.600000000000000089e-01 8.124656823627893210e-02
2.700000000000000178e-01 8.325179202965278524e-02
2.800000000000000266e-01 8.177183031101402377e-02
2.899999999999999800e-01 7.620141610203080840e-02
2.999999999999999889e-01 6.662468574491824114e-02
3.099999999999999978e-01 5.302015849672202935e-02
3.200000000000000067e-01 3.558983529726617717e-02
3.300000000000000155e-01 1.493955232739888582e-02
3.400000000000000244e-01 -8.508998171199174884e-03
3.500000000000000333e-01 -3.369673940171309667e-02
3.599999999999999867e-01 -5.980956907494039410e-02
3.699999999999999956e-01 -8.569345603787761889e-02
3.800000000000000044e-01 -1.100087066008268166e-01
3.900000000000000133e-01 -1.318053732429553537e-01
4.000000000000000222e-01 -1.495215767365773996e-01
4.100000000000000311e-01 -1.623543819624642393e-01
4.199999999999999845e-01 -1.690519281726734491e-01
4.299999999999999933e-01 -1.688585890565429681e-01
4.400000000000000022e-01 -1.613256186285487448e-01
4.500000000000000111e-01 -1.457174212043534645e-01
4.600000000000000200e-01 -1.226815128550451800e-01
4.700000000000000289e-01 -9.160370722418165190e-02
4.799999999999999822e-01 -5.420893495929228478e-02
4.899999999999999911e-01 -1.025769052623414987e-02
5.000000000000000000e-01 3.793695930032352920e-02
5.100000000000000089e-01 8.952393899415429790e-02
5.200000000000000178e-01 1.423932522332045925e-01
5.300000000000000266e-01 1.947825567920672685e-01
5.400000000000000355e-01 2.446691115738289790e-01
5.500000000000000444e-01 2.901011424988768073e-01
5.600000000000000533e-01 3.289453641064060130e-01
5.700000000000000622e-01 3.598911439004228163e-01
5.799999999999999600e-01 3.805288134771350195e-01
5.899999999999999689e-01 3.909155548848858297e-01
5.999999999999999778e-01 3.883351991623183452e-01
6.099999999999999867e-01 3.744276315581115955e-01
6.199999999999999956e-01 3.469729351250067650e-01
6.300000000000000044e-01 3.083738076972393771e-01
6.400000000000000133e-01 2.580454554567550574e-01
6.500000000000000222e-01 1.983351704204616706e-01
6.600000000000000311e-01 1.304004193442893367e-01
6.700000000000000400e-01 5.659467138948814230e-02
6.800000000000000488e-01 -2.078173127751742344e-02
6.900000000000000577e-01 -9.913437880263907542e-02
7.000000000000000666e-01 -1.759755938707167067e-01
7.099999999999999645e-01 -2.481588981546626049e-01
7.199999999999999734e-01 -3.141038110759215018e-01
7.299999999999999822e-01 -3.698568411312310178e-01
7.399999999999999911e-01 -4.152787224690047685e-01
7.500000000000000000e-01 -4.468544965276748382e-01
7.600000000000000089e-01 -4.650199692844486088e-01
7.700000000000000178e-01 -4.678151671081310914e-01
7.800000000000000266e-01 -4.559040075115969315e-01
7.900000000000000355e-01 -4.293688601144002859e-01
8.000000000000000444e-01 -3.890071100860541531e-01
8.100000000000000533e-01 -3.368388450333701933e-01
8.200000000000000622e-01 -2.739436638660706635e-01
8.300000000000000711e-01 -2.036096807941202846e-01
8.399999999999999689e-01 -1.275404193788093887e-01
8.499999999999999778e-01 -4.920814436940833952e-02
8.599999999999999867e-01 2.865961182272339092e-02
8.699999999999999956e-01 1.033613382060450808e-01
8.800000000000000044e-01 1.716832571427794329e-01
8.900000000000000133e-01 2.316498738086963660e-01
9.000000000000000222e-01 2.806839413466803435e-01
9.100000000000000311e-01 3.171900185726113652e-01
9.200000000000000400e-01 3.401950517327830825e-01
9.300000000000000488e-01 3.482769841042485659e-01
9.400000000000000577e-01 3.425464648322651406e-01
9.500000000000000666e-01 3.217802315541650748e-01
9.599999999999999645e-01 2.890416081833446782e-01
9.699999999999999734e-01 2.435820115986239709e-01
9.799999999999999822e-01 1.894472464177048010e-01
9.899999999999999911e-01 1.275631535098588065e-01
1.000000000000000000e+00 6.140404747525864820e-02
1.010000000000000009e+00 -6.703352625751914790e-03
1.020000000000000018e+00 -7.376949429086199217e-02
1.030000000000000027e+00 -1.371748480206980425e-01
1.040000000000000036e+00 -1.941548413436620935e-01
1.050000000000000044e+00 -2.429473086365012413e-01
1.060000000000000053e+00 -2.807888549275558421e-01
1.070000000000000062e+00 -3.076532001575862929e-01
1.080000000000000071e+00 -3.207235306197282476e-01
1.090000000000000080e+00 -3.218848971099337875e-01
1.100000000000000089e+00 -3.090655291299222451e-01
1.110000000000000098e+00 -2.850669026949490537e-01
1.120000000000000107e+00 -2.496614360448927428e-01
1.130000000000000115e+00 -2.055711085737966515e-01
1.140000000000000124e+00 -1.543223021578709053e-01
1.150000000000000133e+00 -9.855766652709607722e-02
1.159999999999999920e+00 -4.072655149514436967e-02
1.169999999999999929e+00 1.643213004929074475e-02
1.179999999999999938e+00 7.063793662716356947e-02
1.189999999999999947e+00 1.188341766472864464e-01
1.199999999999999956e+00 1.599715965948138585e-01
1.209999999999999964e+00 1.905526139684591835e-01
1.219999999999999973e+00 2.111176380661018703e-01
1.229999999999999982e+00 2.189943737583064931e-01
1.239999999999999991e+00 2.153200973213432179e-01
1.250000000000000000e+00 1.991396032965862262e-01
1.260000000000000009e+00 1.718442913468620492e-01
1.270000000000000018e+00 1.343077377427104036e-01
1.280000000000000027e+00 8.811755357770319208e-02
1.290000000000000036e+00 3.550311312830915778e-02
1.300000000000000044e+00 -2.160851524961680467e-02
1.310000000000000053e+00 -8.053376335538600661e-02
1.320000000000000062e+00 -1.387541286437027066e-01
1.330000000000000071e+00 -1.941419598102382404e-01
1.340000000000000080e+00 -2.436082551779821248e-01
1.350000000000000089e+00 -2.860340159603383392e-01
1.360000000000000098e+00 -3.186749099764453752e-01
1.370000000000000107e+00 -3.410234069830526682e-01
1.380000000000000115e+00 -3.515986970352935614e-01
1.390000000000000124e+00 -3.502345913170634706e-01
1.400000000000000133e+00 -3.371786611007624446e-01
1.409999999999999920e+00 -3.125156927910227034e-01
1.419999999999999929e+00 -2.781417981901143088e-01
1.429999999999999938e+00 -2.345086926270803784e-01
1.439999999999999947e+00 -1.845641573739764119e-01
1.449999999999999956e+00 -1.294022689077730381e-01
1.459999999999999964e+00 -7.205428677887204536e-02
1.469999999999999973e+00 -1.460336893280440862e-02
1.479999999999999982e+00 4.063810472817245417e-02
1.489999999999999991e+00 9.125536873971110130e-02
1.500000000000000000e+00 1.354489808508000104e-01
1.510000000000000009e+00 1.714488853719180195e-01
1.520000000000000018e+00 1.977293223275199407e-01
1.530000000000000027e+00 2.138958654187848585e-01
1.540000000000000036e+00 2.185744208975147485e-01
1.550000000000000044e+00 2.130387414172015548e-01
1.560000000000000053e+00 1.961272975435671417e-01
1.570000000000000062e+00 1.704406804651616703e-01
1.580000000000000071e+00 1.356466304654539434e-01
1.590000000000000080e+00 9.462120640275474559e-02
1.600000000000000089e+00 4.835917790527735627e-02
1.610000000000000098e+00 -6.816073558384861536e-04
1.620000000000000107e+00 -5.067343210430704653e-02
1.630000000000000115e+00 -9.946643479616289196e-02
1.640000000000000124e+00 -1.452780927715850989e-01
1.650000000000000133e+00 -1.860975942304782249e-01
1.660000000000000142e+00 -2.209951678284179932e-01
1.669999999999999929e+00 -2.479845774880960474e-01
1.679999999999999938e+00 -2.675105560232042823e-01
1.689999999999999947e+00 -2.776375403822137211e-01
1.699999999999999956e+00 -2.800205813700558655e-01
1.709999999999999964e+00 -2.737578658742387261e-01
1.719999999999999973e+00 -2.606710496439942903e-01
1.729999999999999982e+00 -2.412011379948214296e-01
1.739999999999999991e+00 -2.171303337149813051e-01
1.750000000000000000e+00 -1.898525730023560010e-01
1.760000000000000009e+00 -1.611379650969163579e-01
1.770000000000000018e+00 -1.326458481056891903e-01
1.780000000000000027e+00 -1.062445954251288460e-01
1.790000000000000036e+00 -8.310182253523067109e-02
1.800000000000000044e+00 -6.527876070104665640e-02
1.810000000000000053e+00 -5.293732826918857992e-02
1.820000000000000062e+00 -4.802404424379171782e-02
1.830000000000000071e+00 -4.986811869921923407e-02
1.840000000000000080e+00 -5.951530967269987038e-02
1.850000000000000089e+00 -7.602363009100102098e-02
1.860000000000000098e+00 -9.924105895304266567e-02
1.870000000000000107e+00 -1.280721092767753144e-01
1.880000000000000115e+00 -1.613689566207329451e-01
1.890000000000000124e+00 -1.978597525235189780e-01
1.900000000000000133e+00 -2.359246408056577815e-01
1.910000000000000142e+00 -2.739993100773665535e-01
1.919999999999999929e+00 -3.106840251809808717e-01
1.929999999999999938e+00 -3.439938883483708576e-01
1.939999999999999947e+00 -3.732401711735846561e-01
1.949999999999999956e+00 -3.964956950819424342e-01
1.959999999999999964e+00 -4.135882268684078489e-01
1.969999999999999973e+00 -4.232855985073709082e-01
1.979999999999999982e+00 -4.256886721690302799e-01
1.989999999999999991e+00 -4.206209548641151041e-01
2.000000000000000000e+00 -4.083391393541601633e-01
2.010000000000000231e+00 -3.897234708781525669e-01
2.020000000000000018e+00 -3.651891356271727562e-01
2.030000000000000249e+00 -3.363420542162064986e-01
2.040000000000000036e+00 -3.038544636437838786e-01
2.049999999999999822e+00 -2.694868244710873495e-01
2.060000000000000053e+00 -2.343309635762263476e-01
2.069999999999999840e+00 -1.997455987795204169e-01
2.080000000000000071e+00 -1.670218164456764021e-01
2.089999999999999858e+00 -1.370335365968027297e-01
2.100000000000000089e+00 -1.107571730350608019e-01
2.109999999999999876e+00 -8.871904326159833765e-02
2.120000000000000107e+00 -7.117827272287179097e-02
2.129999999999999893e+00 -5.839083765413940336e-02
2.140000000000000124e+00 -4.978290911702205890e-02
2.149999999999999911e+00 -4.532274793389397261e-02
2.160000000000000142e+00 -4.380003833996996832e-02
2.169999999999999929e+00 -4.479286233216962787e-02
2.180000000000000160e+00 -4.690906159215418175e-02
2.189999999999999947e+00 -4.918166694668144046e-02
2.200000000000000178e+00 -5.048153720995427612e-02
2.209999999999999964e+00 -4.962838604055078151e-02
2.220000000000000195e+00 -4.573283509973233990e-02
2.229999999999999982e+00 -3.792229539483773365e-02
2.240000000000000213e+00 -2.548602946433407845e-02
2.250000000000000000e+00 -8.264707259022209540e-03
2.260000000000000231e+00 1.427863978515559427e-02
2.270000000000000018e+00 4.143547282620595879e-02
2.280000000000000249e+00 7.347607011925322285e-02
2.290000000000000036e+00 1.090201273402344462e-01
2.300000000000000266e+00 1.477593947316084844e-01
2.310000000000000053e+00 1.881584385283658900e-01
2.319999999999999840e+00 2.291851737768719754e-01
2.330000000000000071e+00 2.694477901363442340e-01
2.339999999999999858e+00 3.075780568228803080e-01
2.350000000000000089e+00 3.422476176177257634e-01
2.359999999999999876e+00 3.723420296388797457e-01
2.370000000000000107e+00 3.964973586277482087e-01
2.379999999999999893e+00 4.143825838576685738e-01
2.390000000000000124e+00 4.245545006783834063e-01
2.399999999999999911e+00 4.277837763596951115e-01
2.410000000000000142e+00 4.226156017348496330e-01
2.419999999999999929e+00 4.107164473687580641e-01
2.430000000000000160e+00 3.914575080970371657e-01
2.439999999999999947e+00 3.665220378845360782e-01
2.450000000000000178e+00 3.363612306749823588e-01
2.459999999999999964e+00 3.025329148142777425e-01
2.470000000000000195e+00 2.662308058305300484e-01
2.479999999999999982e+00 2.289523599461897041e-01
2.490000000000000213e+00 1.920663620910070535e-01
2.500000000000000000e+00 1.571269051765205593e-01
2.510000000000000231e+00 1.250677021343041817e-01
2.520000000000000018e+00 9.759184296227924049e-02
2.530000000000000249e+00 7.478677779534577408e-02
2.540000000000000036e+00 5.827404652958279030e-02
2.550000000000000266e+00 4.744364440898194563e-02
2.560000000000000053e+00 4.317371928333363362e-02
2.569999999999999840e+00 4.464954883450210354e-02
2.580000000000000071e+00 5.175790532781734260e-02
2.589999999999999858e+00 6.357634191507384458e-02
2.600000000000000089e+00 7.916824771333687283e-02
2.609999999999999876e+00 9.748535262317069294e-02
2.620000000000000107e+00 1.171976226143986444e-01
2.629999999999999893e+00 1.370386201106437718e-01
2.640000000000000124e+00 1.558519198225871427e-01
2.649999999999999911e+00 1.720547680883717234e-01
2.660000000000000142e+00 1.850762635627125896e-01
2.669999999999999929e+00 1.933880163096120264e-01
2.680000000000000160e+00 1.968759411133800263e-01
2.689999999999999947e+00 1.945903893538374063e-01
2.700000000000000178e+00 1.866772831771913999e-01
2.709999999999999964e+00 1.730604905151515993e-01
2.720000000000000195e+00 1.540667014369466181e-01
2.729999999999999982e+00 1.304787215121197552e-01
2.740000000000000213e+00 1.028301315452368053e-01
2.750000000000000000e+00 7.246043692334955266e-02
2.760000000000000231e+00 4.022062911949029346e-02
2.770000000000000018e+00 7.510167114590753437e-03
2.780000000000000249e+00 -2.439064700422276244e-02
2.790000000000000036e+00 -5.444141155613104605e-02
2.800000000000000266e+00 -8.122627373269455942e-02
2.810000000000000053e+00 -1.040484669572768611e-01
2.819999999999999840e+00 -1.218614714353166845e-01
2.830000000000000071e+00 -1.341778501922063493e-01
2.839999999999999858e+00 -1.407105482787327222e-01
2.850000000000000089e+00 -1.411067135630599267e-01
2.859999999999999876e+00 -1.359756708811024895e-01
2.870000000000000107e+00 -1.251197372285941800e-01
2.879999999999999893e+00 -1.098945186142359920e-01
2.890000000000000124e+00 -9.037086628594802329e-02
2.899999999999999911e+00 -6.819685296920072193e-02
2.910000000000000142e+00 -4.404785072546640867e-02
2.919999999999999929e+00 -1.929068383847773113e-02
2.930000000000000160e+00 4.995788635271764151e-03
2.939999999999999947e+00 2.771757001939634257e-02
2.950000000000000178e+00 4.788237506963826523e-02
2.959999999999999964e+00 6.457191287624901299e-02
2.970000000000000195e+00 7.732062315159446420e-02
2.979999999999999982e+00 8.532328422683757574e-02
2.990000000000000213e+00 8.889116514981526551e-02
3.000000000000000000e+00 8.734952066785101055e-02
3.010000000000000231e+00 8.172789517744569188e-02
3.020000000000000018e+00 7.174097444980885585e-02
3.030000000000000249e+00 5.869539017607999093e-02
3.040000000000000036e+00 4.299292308851975636e-02
3.050000000000000266e+00 2.582295768761285262e-02
3.060000000000000053e+00 8.074134654909853950e-03
3.070000000000000284e+00 -9.160568588961550546e-03
3.080000000000000071e+00 -2.494554284769432903e-02
3.089999999999999858e+00 -3.822178378773079949e-02
3.100000000000000089e+00 -4.844751728796627133e-02
3.109999999999999876e+00 -5.455387032530509273e-02
3.120000000000000107e+00 -5.670663928581506918e-02
3.129999999999999893e+00 -5.385257332982718026e-02
3.140000000000000124e+00 -4.682763177116755493e-02
3.149999999999999911e+00 -3.510500706718445302e-02
3.160000000000000142e+00 -1.967431762561579200e-02
3.169999999999999929e+00 -7.528992535176613071e-04
3.180000000000000160e+00 2.066136082296652493e-02
3.189999999999999947e+00 4.379044072562415096e-02
3.200000000000000178e+00 6.761248414138414098e-02
3.209999999999999964e+00 9.117038126818968746e-02
3.220000000000000195e+00 1.133539074171559802e-01
3.229999999999999982e+00 1.334696473992527666e-01
3.240000000000000213e+00 1.502608229149861307e-01
3.250000000000000000e+00 1.636239470171031163e-01
3.260000000000000231e+00 1.723108339228155150e-01
3.270000000000000018e+00 1.767362357432074593e-01
3.280000000000000249e+00 1.761705457730718960e-01
3.290000000000000036e+00 1.711801318212954615e-01
3.300000000000000266e+00 1.617698466157208859e-01
3.310000000000000053e+00 1.485832928829816102e-01
3.320000000000000284e+00 1.322647342534442050e-01
3.330000000000000071e+00 1.135430753330703840e-01
3.339999999999999858e+00 9.340422171274090357e-02
3.350000000000000089e+00 7.272725552524186843e-02
3.359999999999999876e+00 5.242710392795678354e-02
3.370000000000000107e+00 3.360673749552980233e-02
3.379999999999999893e+00 1.678376023324512287e-02
3.390000000000000124e+00 3.060915044040124836e-03
3.399999999999999911e+00 -7.402375149450345429e-03
3.410000000000000142e+00 -1.388347072449697302e-02
3.419999999999999929e+00 -1.643449934794198250e-02
3.430000000000000160e+00 -1.494759505983193730e-02
3.439999999999999947e+00 -9.620406904366737497e-03
3.450000000000000178e+00 -9.687368780461405593e-04
3.459999999999999964e+00 1.065619665417171132e-02
3.470000000000000195e+00 2.431962703305398654e-02
3.479999999999999982e+00 3.944829573429083081e-02
3.490000000000000213e+00 5.504244027924266175e-02
3.500000000000000000e+00 7.022990758137781508e-02
3.510000000000000231e+00 8.426049051827251557e-02
3.520000000000000018e+00 9.616151792620337979e-02
3.530000000000000249e+00 1.054451271641442672e-01
3.540000000000000036e+00 1.113961106762640374e-01
3.550000000000000266e+00 1.137018260947952331e-01
3.560000000000000053e+00 1.121808121145034531e-01
3.570000000000000284e+00 1.066501860375899113e-01
3.580000000000000071e+00 9.755034924693234410e-02
3.589999999999999858e+00 8.484996591753508899e-02
3.600000000000000089e+00 6.948718087964975143e-02
3.609999999999999876e+00 5.166804490333800487e-02
3.620000000000000107e+00 3.250401574392401682e-02
3.629999999999999893e+00 1.261804621142151826e-02
3.640000000000000124e+00 -7.068275579640760468e-03
3.649999999999999911e+00 -2.569743268444253659e-02
3.660000000000000142e+00 -4.252922247359025576e-02
3.669999999999999929e+00 -5.683918089479718383e-02
3.680000000000000160e+00 -6.800099244004090271e-02
3.689999999999999947e+00 -7.574128880413313891e-02
3.700000000000000178e+00 -7.951086824221917371e-02
3.709999999999999964e+00 -7.965193847030278829e-02
3.720000000000000195e+00 -7.571864464507761794e-02
3.729999999999999982e+00 -6.859705229183299391e-02
3.740000000000000213e+00 -5.814227292843987538e-02
3.750000000000000000e+00 -4.543077269821346742e-02
3.760000000000000231e+00 -3.084433333099416072e-02
3.770000000000000018e+00 -1.533719842532983713e-02
3.780000000000000249e+00 3.568020428902484581e-04
3.790000000000000036e+00 1.537875054932747593e-02
3.800000000000000266e+00 2.899885807454786329e-02
3.810000000000000053e+00 4.040010806682189926e-02
3.820000000000000284e+00 4.919917958118660145e-02
3.830000000000000071e+00 5.458799841788670310e-02
3.839999999999999858e+00 5.675930736055877918e-02
3.850000000000000089e+00 5.493927379392434668e-02
3.859999999999999876e+00 4.984790209294544250e-02
