# [DEFAULT]
# # input and output specifications
# dataformat = QA
# outputtype = gr
# 
# # PDF calculation setup
# mode = xray
# wavelength = 
# composition = Cl4.0Cr1.0Na1.0
# bgscale = 1.0
# rpoly = 0.9
# qmaxinst = 28
# qmin = 0.0
# qmax = 22
# rmin = 0.0
# rmax = 30.0
# rstep = 0.01
# 
# # End of config --------------------------------------------------------------
# 
# #### start data
# #S 1
# #L r(Å)  G(Å$^$)
# 
0.000000000000000000e+00 0.000000000000000000e+00
1.000000000000000021e-02 -3.330141645226603921e-03
2.000000000000000042e-02 -6.746506253561978042e-03
2.999999999999999889e-02 -1.034227267433247485e-02
4.000000000000000083e-02 -1.414136505285035379e-02
5.000000000000000278e-02 -1.816390037269952420e-02
5.999999999999999778e-02 -2.234673736208077702e-02
7.000000000000000666e-02 -2.659117875556093677e-02
8.000000000000000167e-02 -3.072384084532302218e-02
8.999999999999999667e-02 -3.455414613261297702e-02
1.000000000000000056e-01 -3.777413626257889595e-02
1.100000000000000006e-01 -4.020406375651482123e-02
1.199999999999999956e-01 -4.138574102646977448e-02
1.300000000000000044e-01 -4.127000423584798600e-02
1.400000000000000133e-01 -3.934845222829180117e-02
1.499999999999999944e-01 -3.570997071117983784e-02
1.600000000000000033e-01 -3.002569574490958695e-02
1.700000000000000122e-01 -2.246232684960601869e-02
1.799999999999999933e-01 -1.301936330715855114e-02
1.900000000000000022e-01 -1.965314678938267275e-03
2.000000000000000111e-01 1.035285642492175459e-02
2.099999999999999922e-01 2.350645670463457487e-02
2.200000000000000011e-01 3.692255932581443162e-02
2.300000000000000100e-01 4.992602109677610200e-02
2.399999999999999911e-01 6.196879730322137764e-02
2.500000000000000000e-01 7.204309151704883785e-02
2.600000000000000089e-01 7.984147674643089776e-02
2.700000000000000178e-01 8.430472847446945917e-02
2.800000000000000266e-01 8.527690809890002555e-02
2.899999999999999800e-01 8.201823390907081457e-02
2.999999999999999889e-01 7.448451337216509260e-02
3.099999999999999978e-01 6.253427486786787559e-02
3.200000000000000067e-01 4.625244297064895482e-02
3.300000000000000155e-01 2.619646851457290565e-02
3.400000000000000244e-01 2.681000115955867527e-03
3.500000000000000333e-01 -2.317730282831836214e-02
3.599999999999999867e-01 -5.065070793086202255e-02
3.699999999999999956e-01 -7.843132834339235082e-02
3.800000000000000044e-01 -1.051946228382689974e-01
3.900000000000000133e-01 -1.298034657795513191e-01
4.000000000000000222e-01 -1.506056796726868152e-01
4.100000000000000311e-01 -1.666173782833521300e-01
4.199999999999999845e-01 -1.764277524815935083e-01
4.299999999999999933e-01 -1.790996219520807620e-01
4.400000000000000022e-01 -1.740289351767869974e-01
4.500000000000000111e-01 -1.602872369880162517e-01
4.600000000000000200e-01 -1.384462347862089882e-01
4.700000000000000289e-01 -1.076831830403721102e-01
4.799999999999999822e-01 -6.978353990457669687e-02
4.899999999999999911e-01 -2.429486339884213281e-02
5.000000000000000000e-01 2.628469833651033566e-02
5.100000000000000089e-01 8.119792957023963531e-02
5.200000000000000178e-01 1.381325169322161761e-01
5.300000000000000266e-01 1.952609323427910160e-01
5.400000000000000355e-01 2.503470131850111247e-01
5.500000000000000444e-01 3.012542929054647933e-01
5.600000000000000533e-01 3.456115485391437758e-01
5.700000000000000622e-01 3.818850670112113876e-01
5.799999999999999600e-01 4.073795156727620381e-01
5.899999999999999689e-01 4.219928599818568715e-01
5.999999999999999778e-01 4.226546182109278682e-01
6.099999999999999867e-01 4.109856722796196848e-01
6.199999999999999956e-01 3.844003684900340057e-01
6.300000000000000044e-01 3.453925032969712983e-01
6.400000000000000133e-01 2.931411191073113875e-01
6.500000000000000222e-01 2.301125032478141541e-01
6.600000000000000311e-01 1.574300796553549930e-01
6.700000000000000400e-01 7.758268285868541447e-02
6.800000000000000488e-01 -6.963958848778963040e-03
6.900000000000000577e-01 -9.345096368784266971e-02
7.000000000000000666e-01 -1.790882481922736191e-01
7.099999999999999645e-01 -2.605022345142949947e-01
7.199999999999999734e-01 -3.357825597072144341e-01
7.299999999999999822e-01 -4.006425227143368684e-01
7.399999999999999911e-01 -4.546905973057446815e-01
7.500000000000000000e-01 -4.940166966978419283e-01
7.600000000000000089e-01 -5.188881800732645377e-01
7.700000000000000178e-01 -5.270084986472820532e-01
7.800000000000000266e-01 -5.189149317665462391e-01
7.900000000000000355e-01 -4.945242137132835336e-01
8.000000000000000444e-01 -4.545205502734454006e-01
8.100000000000000533e-01 -4.009923560876904602e-01
8.200000000000000622e-01 -3.349154573238193877e-01
8.300000000000000711e-01 -2.598784603505153723e-01
8.399999999999999689e-01 -1.775147207244920367e-01
8.499999999999999778e-01 -9.174515410142805583e-02
8.599999999999999867e-01 -5.356791035545767354e-03
8.699999999999999956e-01 7.850961873862105644e-02
8.800000000000000044e-01 1.564096248695395208e-01
8.900000000000000133e-01 2.260065207011459909e-01
9.000000000000000222e-01 2.844149453768167746e-01
9.100000000000000311e-01 3.297236945079503601e-01
9.200000000000000400e-01 3.607067424468452521e-01
9.300000000000000488e-01 3.756377538998460497e-01
9.400000000000000577e-01 3.755410514205649863e-01
9.500000000000000666e-01 3.588808336244608821e-01
9.599999999999999645e-01 3.288643636889124200e-01
9.699999999999999734e-01 2.844275703884581175e-01
9.799999999999999822e-01 2.299428986952542220e-01
9.899999999999999911e-01 1.661938610281666617e-01
1.000000000000000000e+00 9.697618627108851863e-02
1.010000000000000009e+00 2.469210527420539342e-02
1.020000000000000018e+00 -4.737261678353615890e-02
1.030000000000000027e+00 -1.163717954344598571e-01
1.040000000000000036e+00 -1.792576511766173775e-01
1.050000000000000044e+00 -2.339971692542786863e-01
1.060000000000000053e+00 -2.775320430971431884e-01
1.070000000000000062e+00 -3.096371321483862848e-01
1.080000000000000071e+00 -3.271666518898749820e-01
1.090000000000000080e+00 -3.319579718549753311e-01
1.100000000000000089e+00 -3.216196433682545486e-01
1.110000000000000098e+00 -2.990299890238402036e-01
1.120000000000000107e+00 -2.637699268412626585e-01
1.130000000000000115e+00 -2.186780102273654658e-01
1.140000000000000124e+00 -1.652700453489732713e-01
1.150000000000000133e+00 -1.063237914552282171e-01
1.159999999999999920e+00 -4.444054777482669971e-02
1.169999999999999929e+00 1.748570329835160558e-02
1.179999999999999938e+00 7.692719819743519538e-02
1.189999999999999947e+00 1.306340783591813937e-01
1.199999999999999956e+00 1.773110848614908031e-01
1.209999999999999964e+00 2.132056253164313075e-01
1.219999999999999973e+00 2.386938995301028932e-01
1.229999999999999982e+00 2.508311180673568064e-01
1.239999999999999991e+00 2.506686607748447315e-01
1.250000000000000000e+00 2.370486393759410337e-01
1.260000000000000009e+00 2.113209764701332871e-01
1.270000000000000018e+00 1.742916510082194448e-01
1.280000000000000027e+00 1.275304385430763576e-01
1.290000000000000036e+00 7.335398806122632454e-02
1.300000000000000044e+00 1.369196290706669109e-02
1.310000000000000053e+00 -4.855763510147327600e-02
1.320000000000000062e+00 -1.108396639352548091e-01
1.330000000000000071e+00 -1.707562217860972564e-01
1.340000000000000080e+00 -2.251085997952591289e-01
1.350000000000000089e+00 -2.725418017320016539e-01
1.360000000000000098e+00 -3.101363254255115609e-01
1.370000000000000107e+00 -3.372086723210762083e-01
1.380000000000000115e+00 -3.521066520131306832e-01
1.390000000000000124e+00 -3.545270223645503038e-01
1.400000000000000133e+00 -3.446208447679151021e-01
1.409999999999999920e+00 -3.223576025834760106e-01
1.419999999999999929e+00 -2.896538919846636806e-01
1.429999999999999938e+00 -2.468621526342560935e-01
1.439999999999999947e+00 -1.970715490698198291e-01
1.449999999999999956e+00 -1.413012597155807459e-01
1.459999999999999964e+00 -8.279467667801874986e-02
1.469999999999999973e+00 -2.365322586092653487e-02
1.479999999999999982e+00 3.362245821436719156e-02
1.489999999999999991e+00 8.651429039530011966e-02
1.500000000000000000e+00 1.330632454138462872e-01
1.510000000000000009e+00 1.713679693515368641e-01
1.520000000000000018e+00 1.997623460915318450e-01
1.530000000000000027e+00 2.177535149122550584e-01
1.540000000000000036e+00 2.238361306672654594e-01
1.550000000000000044e+00 2.192644778532042704e-01
1.560000000000000053e+00 2.027513197148687885e-01
1.570000000000000062e+00 1.769681130697046134e-01
1.580000000000000071e+00 1.414934507020630949e-01
1.590000000000000080e+00 9.932187836517639146e-02
1.600000000000000089e+00 5.144119146669647036e-02
1.610000000000000098e+00 4.276573806110883433e-04
1.620000000000000107e+00 -5.182268810952617849e-02
1.630000000000000115e+00 -1.030452713852699070e-01
1.640000000000000124e+00 -1.513533340463644739e-01
1.650000000000000133e+00 -1.946203168419478879e-01
1.660000000000000142e+00 -2.318247722423152635e-01
1.669999999999999929e+00 -2.608565215624247258e-01
1.679999999999999938e+00 -2.821246355846430132e-01
1.689999999999999947e+00 -2.935579246187320357e-01
1.699999999999999956e+00 -2.968431770000334313e-01
1.709999999999999964e+00 -2.909809601369511278e-01
1.719999999999999973e+00 -2.778484315680960770e-01
1.729999999999999982e+00 -2.578583046787178978e-01
1.739999999999999991e+00 -2.328551776007816987e-01
1.750000000000000000e+00 -2.042719279934688548e-01
1.760000000000000009e+00 -1.739433070928128600e-01
1.770000000000000018e+00 -1.436113602826548374e-01
1.780000000000000027e+00 -1.152138030963940213e-01
1.790000000000000036e+00 -9.000946317689331733e-02
1.800000000000000044e+00 -7.013934043352108849e-02
1.810000000000000053e+00 -5.583099758726876860e-02
1.820000000000000062e+00 -4.911899713140649437e-02
1.830000000000000071e+00 -4.936012262915260435e-02
1.840000000000000080e+00 -5.767005741262213464e-02
1.850000000000000089e+00 -7.311163904624859433e-02
1.860000000000000098e+00 -9.556308580663622210e-02
1.870000000000000107e+00 -1.239224661920450415e-01
1.880000000000000115e+00 -1.570277092026899912e-01
1.890000000000000124e+00 -1.935960857391679779e-01
1.900000000000000133e+00 -2.319592214017079379e-01
1.910000000000000142e+00 -2.705402616505417912e-01
1.919999999999999929e+00 -3.078762759429426454e-01
1.929999999999999938e+00 -3.419691566590600251e-01
1.939999999999999947e+00 -3.720751046020981390e-01
1.949999999999999956e+00 -3.962497682744708927e-01
1.959999999999999964e+00 -4.142916359538438842e-01
1.969999999999999973e+00 -4.249575543793923660e-01
1.979999999999999982e+00 -4.283416989871014491e-01
1.989999999999999991e+00 -4.242710258187893380e-01
2.000000000000000000e+00 -4.130142365945484451e-01
2.010000000000000231e+00 -3.954664558730509594e-01
2.020000000000000018e+00 -3.720705928791092076e-01
2.030000000000000249e+00 -3.444463270501670338e-01
2.040000000000000036e+00 -3.133058141835552979e-01
2.049999999999999822e+00 -2.804079943327708602e-01
2.060000000000000053e+00 -2.468838605219824678e-01
2.069999999999999840e+00 -2.140727135860131247e-01
2.080000000000000071e+00 -1.832798460199849822e-01
2.089999999999999858e+00 -1.553473080823536412e-01
2.100000000000000089e+00 -1.312291698427350550e-01
2.109999999999999876e+00 -1.114030735100118991e-01
2.120000000000000107e+00 -9.607451012918617750e-02
2.129999999999999893e+00 -8.542602321447069491e-02
2.140000000000000124e+00 -7.881993986361351956e-02
2.149999999999999911e+00 -7.611598671362580781e-02
2.160000000000000142e+00 -7.606306509520592563e-02
2.169999999999999929e+00 -7.808641151074584286e-02
2.180000000000000160e+00 -8.079642408805678966e-02
2.189999999999999947e+00 -8.307707249869288046e-02
2.200000000000000178e+00 -8.381618362986603676e-02
2.209999999999999964e+00 -8.173846502220716292e-02
2.220000000000000195e+00 -7.597467364728983930e-02
2.229999999999999982e+00 -6.563994588368501915e-02
2.240000000000000213e+00 -5.004718706406897227e-02
2.250000000000000000e+00 -2.911306692804111959e-02
2.260000000000000231e+00 -2.337886159080919402e-03
2.270000000000000018e+00 2.942600466014809457e-02
2.280000000000000249e+00 6.637851230944040448e-02
2.290000000000000036e+00 1.069724557210019328e-01
2.300000000000000266e+00 1.507707257951801938e-01
2.310000000000000053e+00 1.960950739222362960e-01
2.319999999999999840e+00 2.417439039096619946e-01
2.330000000000000071e+00 2.862097253378671491e-01
2.339999999999999858e+00 3.279701533439298156e-01
2.350000000000000089e+00 3.655911118241762514e-01
2.359999999999999876e+00 3.978770044273941542e-01
2.370000000000000107e+00 4.233561303427004208e-01
2.379999999999999893e+00 4.417282275961265103e-01
2.390000000000000124e+00 4.514395981724665941e-01
2.399999999999999911e+00 4.534131289953918231e-01
2.410000000000000142e+00 4.460945675103875074e-01
2.419999999999999929e+00 4.313805293437041333e-01
2.430000000000000160e+00 4.086392185886932316e-01
2.439999999999999947e+00 3.797645348414355748e-01
2.450000000000000178e+00 3.453098918293844855e-01
2.459999999999999964e+00 3.070196117448864559e-01
2.470000000000000195e+00 2.662427641610933260e-01
2.479999999999999982e+00 2.246546971865064080e-01
2.490000000000000213e+00 1.837650554565443961e-01
2.500000000000000000e+00 1.453151313984941406e-01
2.510000000000000231e+00 1.103015582594152472e-01
2.520000000000000018e+00 8.063602996161008118e-02
2.530000000000000249e+00 5.635810545228649854e-02
2.540000000000000036e+00 3.928600925280173461e-02
2.550000000000000266e+00 2.868971052093362631e-02
2.560000000000000053e+00 2.554856077926674976e-02
2.569999999999999840e+00 2.892531282532427930e-02
2.580000000000000071e+00 3.868942346245582420e-02
2.589999999999999858e+00 5.380196675919626803e-02
2.600000000000000089e+00 7.321515745158996280e-02
2.609999999999999876e+00 9.576566075845395487e-02
2.620000000000000107e+00 1.199671100141537772e-01
2.629999999999999893e+00 1.444264853806765947e-01
2.640000000000000124e+00 1.678454405871299959e-01
2.649999999999999911e+00 1.884888783954728197e-01
2.660000000000000142e+00 2.057023723236729162e-01
2.669999999999999929e+00 2.178049097887565511e-01
2.680000000000000160e+00 2.246495140689905301e-01
2.689999999999999947e+00 2.251810786944102027e-01
2.700000000000000178e+00 2.195388804980722697e-01
2.709999999999999964e+00 2.076185862025715090e-01
2.720000000000000195e+00 1.897519260881073699e-01
2.729999999999999982e+00 1.667737888191201945e-01
2.740000000000000213e+00 1.392293589681276034e-01
2.750000000000000000e+00 1.085694958560568524e-01
2.760000000000000231e+00 7.566583724106432096e-02
2.770000000000000018e+00 4.204926141005537604e-02
2.780000000000000249e+00 9.042408371492977048e-03
2.790000000000000036e+00 -2.220773811165065864e-02
2.800000000000000266e+00 -5.022482790757425153e-02
2.810000000000000053e+00 -7.424650325853751620e-02
2.819999999999999840e+00 -9.317641766144510451e-02
2.830000000000000071e+00 -1.064939750624576270e-01
2.839999999999999858e+00 -1.138967011260111489e-01
2.850000000000000089e+00 -1.150252352988616056e-01
2.859999999999999876e+00 -1.105128462885993923e-01
2.870000000000000107e+00 -1.001809137091916879e-01
2.879999999999999893e+00 -8.543433869384109425e-02
2.890000000000000124e+00 -6.639118077304384524e-02
2.899999999999999911e+00 -4.474998969147989114e-02
2.910000000000000142e+00 -2.125426320588574836e-02
2.919999999999999929e+00 2.691894479895946997e-03
2.930000000000000160e+00 2.594679889622968430e-02
2.939999999999999947e+00 4.739202042574564011e-02
2.950000000000000178e+00 6.600545083264588997e-02
2.959999999999999964e+00 8.085731923163433366e-02
2.970000000000000195e+00 9.150089467346120276e-02
2.979999999999999982e+00 9.713654329429183276e-02
2.990000000000000213e+00 9.814022401329948464e-02
3.000000000000000000e+00 9.386928057952337312e-02
3.010000000000000231e+00 8.544147250904199353e-02
3.020000000000000018e+00 7.264347829363486386e-02
3.030000000000000249e+00 5.686440144693778731e-02
3.040000000000000036e+00 3.860696054855144999e-02
3.050000000000000266e+00 1.913033129101768606e-02
3.060000000000000053e+00 -5.826446085390821900e-04
3.070000000000000284e+00 -1.937567222399964179e-02
3.080000000000000071e+00 -3.626379596119491677e-02
3.089999999999999858e+00 -5.012720231387773895e-02
3.100000000000000089e+00 -6.044532579675247069e-02
3.109999999999999876e+00 -6.609357506840247976e-02
3.120000000000000107e+00 -6.733430943696706861e-02
3.129999999999999893e+00 -6.307482843721867738e-02
3.140000000000000124e+00 -5.429450495907525015e-02
3.149999999999999911e+00 -4.048939846003000304e-02
3.160000000000000142e+00 -2.278232990518443482e-02
3.169999999999999929e+00 -1.474144402529992126e-03
3.180000000000000160e+00 2.231881394947013084e-02
3.189999999999999947e+00 4.771399433066260409e-02
3.200000000000000178e+00 7.357794021917785088e-02
3.209999999999999964e+00 9.887540307446325560e-02
3.220000000000000195e+00 1.223841597363929667e-01
3.229999999999999982e+00 1.433985798676806200e-01
3.240000000000000213e+00 1.605485307027083586e-01
3.250000000000000000e+00 1.737981991864450959e-01
3.260000000000000231e+00 1.818121245444706546e-01
3.270000000000000018e+00 1.851196787068810912e-01
3.280000000000000249e+00 1.829804655693241244e-01
3.290000000000000036e+00 1.760763100367757905e-01
3.300000000000000266e+00 1.644770893477367490e-01
3.310000000000000053e+00 1.489415874798051265e-01
3.320000000000000284e+00 1.302192421090789254e-01
3.330000000000000071e+00 1.091598427442576624e-01
3.339999999999999858e+00 8.684587309428966340e-02
3.350000000000000089e+00 6.429037711958641987e-02
3.359999999999999876e+00 4.244831303162717451e-02
3.370000000000000107e+00 2.257184798638347742e-02
3.379999999999999893e+00 5.144353174693168732e-03
3.390000000000000124e+00 -8.621402506667399240e-03
3.399999999999999911e+00 -1.863379013455881625e-02
3.410000000000000142e+00 -2.414208322731268078e-02
3.419999999999999929e+00 -2.528108569984358761e-02
3.430000000000000160e+00 -2.199933102307912933e-02
3.439999999999999947e+00 -1.459135236434406548e-02
3.450000000000000178e+00 -3.685446714051027715e-03
3.459999999999999964e+00 1.024822141552895680e-02
3.470000000000000195e+00 2.615543772633296613e-02
3.479999999999999982e+00 4.331083483397946826e-02
3.490000000000000213e+00 6.063994099710775382e-02
3.500000000000000000e+00 7.709315313000347780e-02
3.510000000000000231e+00 9.190613583519120777e-02
3.520000000000000018e+00 1.039654990585043709e-01
3.530000000000000249e+00 1.127987670298599421e-01
3.540000000000000036e+00 1.176353046257122698e-01
3.550000000000000266e+00 1.181975389686752559e-01
3.560000000000000053e+00 1.143496720291210106e-01
3.570000000000000284e+00 1.059650199516178476e-01
3.580000000000000071e+00 9.361356277307711360e-02
3.589999999999999858e+00 7.735434995890559662e-02
3.600000000000000089e+00 5.829196037143699605e-02
3.609999999999999876e+00 3.677758585738558073e-02
3.620000000000000107e+00 1.406880177530284680e-02
3.629999999999999893e+00 -9.018234289897533035e-03
3.640000000000000124e+00 -3.145823349662681817e-02
3.649999999999999911e+00 -5.221033318283607033e-02
3.660000000000000142e+00 -7.045475985829834087e-02
3.669999999999999929e+00 -8.535783691403925344e-02
3.680000000000000160e+00 -9.622342483097752475e-02
3.689999999999999947e+00 -1.027855158343212588e-01
3.700000000000000178e+00 -1.044314711147122238e-01
3.709999999999999964e+00 -1.016366751457553758e-01
3.720000000000000195e+00 -9.390946099406689840e-02
3.729999999999999982e+00 -8.236093319356660447e-02
3.740000000000000213e+00 -6.686155103337591832e-02
3.750000000000000000e+00 -4.872671871550114664e-02
3.760000000000000231e+00 -2.845169024976343386e-02
3.770000000000000018e+00 -7.190734620381734540e-03
3.780000000000000249e+00 1.415410522802543203e-02
3.790000000000000036e+00 3.454724776919465556e-02
3.800000000000000266e+00 5.310914453721241046e-02
3.810000000000000053e+00 6.885130619145350683e-02
3.820000000000000284e+00 8.132481775121469525e-02
3.830000000000000071e+00 8.954342379496157966e-02
3.839999999999999858e+00 9.376036335212062367e-02
3.850000000000000089e+00 9.301803848311047951e-02
3.859999999999999876e+00 8.820659833377020309e-02
