# [DEFAULT]
# # input and output specifications
# dataformat = QA
# outputtype = gr
# 
# # PDF calculation setup
# mode = xray
# wavelength = 
# composition = Cl4.0Cr1.0Na1.0
# bgscale = 1.0
# rpoly = 0.9
# qmaxinst = 28
# qmin = 0.0
# qmax = 22
# rmin = 0.0
# rmax = 30.0
# rstep = 0.01
# 
# # End of config --------------------------------------------------------------
# 
# #### start data
# #S 1
# #L r(Å)  G(Å$^$)
# 
0.000000000000000000e+00 0.000000000000000000e+00
1.000000000000000021e-02 -2.858468821949407268e-03
2.000000000000000042e-02 -5.842722536789151169e-03
2.999999999999999889e-02 -9.093429342318054207e-03
4.000000000000000083e-02 -1.265763305732449558e-02
5.000000000000000278e-02 -1.659068015052203582e-02
5.999999999999999778e-02 -2.083782762765480287e-02
7.000000000000000666e-02 -2.530691315492140242e-02
8.000000000000000167e-02 -2.981884594714832859e-02
8.999999999999999667e-02 -3.415713346683055956e-02
1.000000000000000056e-01 -3.799201118471118299e-02
1.100000000000000006e-01 -4.109617457407231667e-02
1.199999999999999956e-01 -4.296952063356862528e-02
1.300000000000000044e-01 -4.351457093442179236e-02
1.400000000000000133e-01 -4.216184556532451971e-02
1.499999999999999944e-01 -3.896724299496195920e-02
1.600000000000000033e-01 -3.354263298881970251e-02
1.700000000000000122e-01 -2.603651045841890582e-02
1.799999999999999933e-01 -1.641626012834600246e-02
1.900000000000000022e-01 -4.946121205277754368e-03
2.000000000000000111e-01 8.016495889781299206e-03
2.099999999999999922e-01 2.203070427720257851e-02
2.200000000000000011e-01 3.647183056792553668e-02
2.300000000000000100e-01 5.062925562965452791e-02
2.399999999999999911e-01 6.388133707578300124e-02
2.500000000000000000e-01 7.515220704197334012e-02
2.600000000000000089e-01 8.406679581218487463e-02
2.700000000000000178e-01 8.947418507264676135e-02
2.800000000000000266e-01 9.116866669090353814e-02
2.899999999999999800e-01 8.832859305079698853e-02
2.999999999999999889e-01 8.087527102334471363e-02
3.099999999999999978e-01 6.863063490498884367e-02
3.200000000000000067e-01 5.166093291858159242e-02
3.300000000000000155e-01 3.055309358439899092e-02
3.400000000000000244e-01 5.626641315589328909e-03
3.500000000000000333e-01 -2.190931719700625960e-02
3.599999999999999867e-01 -5.128244262572093787e-02
3.699999999999999956e-01 -8.105948735884914436e-02
3.800000000000000044e-01 -1.098098455136174850e-01
3.900000000000000133e-01 -1.362773118672251649e-01
4.000000000000000222e-01 -1.586604201058002539e-01
4.100000000000000311e-01 -1.758687322779719231e-01
4.199999999999999845e-01 -1.863529749709054439e-01
4.299999999999999933e-01 -1.890748908601788125e-01
4.400000000000000022e-01 -1.833621043204079204e-01
4.500000000000000111e-01 -1.681894067984801289e-01
4.600000000000000200e-01 -1.441727306768715300e-01
4.700000000000000289e-01 -1.104092680436978419e-01
4.799999999999999822e-01 -6.885049514249369507e-02
4.899999999999999911e-01 -1.901094256376385447e-02
5.000000000000000000e-01 3.636860153197818413e-02
5.100000000000000089e-01 9.643458266044935279e-02
5.200000000000000178e-01 1.586383182086096022e-01
5.300000000000000266e-01 2.209417443619481891e-01
5.400000000000000355e-01 2.808658030366529279e-01
5.500000000000000444e-01 3.360305657390690870e-01
5.600000000000000533e-01 3.837912904140438064e-01
5.700000000000000622e-01 4.224399911418643128e-01
5.799999999999999600e-01 4.489549722779905272e-01
5.899999999999999689e-01 4.632265958254981331e-01
5.999999999999999778e-01 4.617983365533528950e-01
6.099999999999999867e-01 4.464875739738728977e-01
6.199999999999999956e-01 4.143694566970154147e-01
6.300000000000000044e-01 3.682372707783878596e-01
6.400000000000000133e-01 3.071425283757438507e-01
6.500000000000000222e-01 2.338448153850787303e-01
6.600000000000000311e-01 1.495848701498599664e-01
6.700000000000000400e-01 5.714765031133493822e-02
6.800000000000000488e-01 -4.070151861805701432e-02
6.900000000000000577e-01 -1.408697231292961871e-01
7.000000000000000666e-01 -2.402028226084880758e-01
7.099999999999999645e-01 -3.349043540781138084e-01
7.199999999999999734e-01 -4.227850344039787434e-01
7.299999999999999822e-01 -4.989959183827647471e-01
7.399999999999999911e-01 -5.630409418190517323e-01
7.500000000000000000e-01 -6.104569090858005254e-01
7.600000000000000089e-01 -6.414820177801122680e-01
7.700000000000000178e-01 -6.534406529558018928e-01
7.800000000000000266e-01 -6.468596799910890649e-01
7.900000000000000355e-01 -6.215529082549823281e-01
8.000000000000000444e-01 -5.781864054808413256e-01
8.100000000000000533e-01 -5.190518957339470552e-01
8.200000000000000622e-01 -4.451070591504900920e-01
8.300000000000000711e-01 -3.604019856408597344e-01
8.399999999999999689e-01 -2.665926334456720781e-01
8.499999999999999778e-01 -1.681871406873562957e-01
8.599999999999999867e-01 -6.814462211093230692e-02
8.699999999999999956e-01 2.986752445124033623e-02
8.800000000000000044e-01 1.220653605693284571e-01
8.900000000000000133e-01 2.057015674159796137e-01
9.000000000000000222e-01 2.775125849007428758e-01
9.100000000000000311e-01 3.352417535170822971e-01
9.200000000000000400e-01 3.773998208839290935e-01
9.300000000000000488e-01 4.019355869177855256e-01
9.400000000000000577e-01 4.098384361766261308e-01
9.500000000000000666e-01 3.992464270090014256e-01
9.599999999999999645e-01 3.736082111481741630e-01
9.699999999999999734e-01 3.315423879877038571e-01
9.799999999999999822e-01 2.778587397957993921e-01
9.899999999999999911e-01 2.132322482059107183e-01
1.000000000000000000e+00 1.418648519531303387e-01
1.010000000000000009e+00 6.629093443546561770e-02
1.020000000000000018e+00 -9.844192502322426583e-03
1.030000000000000027e+00 -8.341577285240789341e-02
1.040000000000000036e+00 -1.510435024112790625e-01
1.050000000000000044e+00 -2.103982446505696657e-01
1.060000000000000053e+00 -2.580859752350813108e-01
1.070000000000000062e+00 -2.936950289972554140e-01
1.080000000000000071e+00 -3.137169354888253991e-01
1.090000000000000080e+00 -3.199866428701736432e-01
1.100000000000000089e+00 -3.097780973753405664e-01
1.110000000000000098e+00 -2.861022320806036467e-01
1.120000000000000107e+00 -2.483631362304783985e-01
1.130000000000000115e+00 -1.995655893303960593e-01
1.140000000000000124e+00 -1.412495771258061861e-01
1.150000000000000133e+00 -7.637186719739538776e-02
1.159999999999999920e+00 -7.722527286091990240e-03
1.169999999999999929e+00 6.160864887202044393e-02
1.179999999999999938e+00 1.288245984598455629e-01
1.189999999999999947e+00 1.904423505588864196e-01
1.199999999999999956e+00 2.449246499529216803e-01
1.209999999999999964e+00 2.882244631790527589e-01
1.219999999999999973e+00 3.205812277502333441e-01
1.229999999999999982e+00 3.387567735405971892e-01
1.239999999999999991e+00 3.437471968516296883e-01
1.250000000000000000e+00 3.341950979104275632e-01
1.260000000000000009e+00 3.114377031810118268e-01
1.270000000000000018e+00 2.762337021787246161e-01
1.280000000000000027e+00 2.301607852607252536e-01
1.290000000000000036e+00 1.756487327768991857e-01
1.300000000000000044e+00 1.146527674311321465e-01
1.310000000000000053e+00 5.030494029452594468e-02
1.320000000000000062e+00 -1.478274654578378214e-02
1.330000000000000071e+00 -7.793615354582138222e-02
1.340000000000000080e+00 -1.358329434687287618e-01
1.350000000000000089e+00 -1.868886598619558803e-01
1.360000000000000098e+00 -2.280073691929069279e-01
1.370000000000000107e+00 -2.583429816118052447e-01
1.380000000000000115e+00 -2.760833169040389223e-01
1.390000000000000124e+00 -2.808060733719828783e-01
1.400000000000000133e+00 -2.725833408412206005e-01
1.409999999999999920e+00 -2.512910439905060578e-01
1.419999999999999929e+00 -2.188801838714629078e-01
1.429999999999999938e+00 -1.756287563124670492e-01
1.439999999999999947e+00 -1.247682816191542921e-01
1.449999999999999956e+00 -6.726914360733980691e-02
1.459999999999999964e+00 -6.572797716634173892e-03
1.469999999999999973e+00 5.518706739918910475e-02
1.479999999999999982e+00 1.153408724928297047e-01
1.489999999999999991e+00 1.712714902617341051e-01
1.500000000000000000e+00 2.208825960332178318e-01
1.510000000000000009e+00 2.621604844513018007e-01
1.520000000000000018e+00 2.933237576600836727e-01
1.530000000000000027e+00 3.138049279222422383e-01
1.540000000000000036e+00 3.219955022543819489e-01
1.550000000000000044e+00 3.191463367949523566e-01
1.560000000000000053e+00 3.038745410428892457e-01
1.570000000000000062e+00 2.789211925011186866e-01
1.580000000000000071e+00 2.437990296317803784e-01
1.590000000000000080e+00 2.016037120841712715e-01
1.600000000000000089e+00 1.533177473246921663e-01
1.610000000000000098e+00 1.016081401959113700e-01
1.620000000000000107e+00 4.841509692821627242e-02
1.630000000000000115e+00 -3.922133683666634979e-03
1.640000000000000124e+00 -5.345466188753289494e-02
1.650000000000000133e+00 -9.799775587329929982e-02
1.660000000000000142e+00 -1.364807462897823509e-01
1.669999999999999929e+00 -1.667515165066452698e-01
1.679999999999999938e+00 -1.892025858937914917e-01
1.689999999999999947e+00 -2.017394995473344443e-01
1.699999999999999956e+00 -2.060659509296250969e-01
1.709999999999999964e+00 -2.011893027998509775e-01
1.719999999999999973e+00 -1.890209371042630426e-01
1.729999999999999982e+00 -1.700083449885725073e-01
1.739999999999999991e+00 -1.460395680610691305e-01
1.750000000000000000e+00 -1.185925478946846801e-01
1.760000000000000009e+00 -8.955148996383763271e-02
1.770000000000000018e+00 -6.068985688886424645e-02
1.780000000000000027e+00 -3.399927013562580036e-02
1.790000000000000036e+00 -1.073593659406696030e-02
1.800000000000000044e+00 6.903393093984699219e-03
1.810000000000000053e+00 1.873289780097050009e-02
1.820000000000000062e+00 2.267687011102923270e-02
1.830000000000000071e+00 1.943816616233041625e-02
1.840000000000000080e+00 7.895067745403175352e-03
1.850000000000000089e+00 -1.096277123324024098e-02
1.860000000000000098e+00 -3.699147642888192533e-02
1.870000000000000107e+00 -6.905010318926323165e-02
1.880000000000000115e+00 -1.059476702110527246e-01
1.890000000000000124e+00 -1.463825309338216418e-01
1.900000000000000133e+00 -1.886709159447025330e-01
1.910000000000000142e+00 -2.312472168013215146e-01
1.919999999999999929e+00 -2.726554597956101778e-01
1.929999999999999938e+00 -3.109546378895719498e-01
1.939999999999999947e+00 -3.454274132155211174e-01
1.949999999999999956e+00 -3.742303823503391191e-01
1.959999999999999964e+00 -3.972111652331710707e-01
1.969999999999999973e+00 -4.132490769258190255e-01
1.979999999999999982e+00 -4.225128561177871056e-01
1.989999999999999991e+00 -4.249338398881298273e-01
2.000000000000000000e+00 -4.208824783259375590e-01
2.010000000000000231e+00 -4.112919640659098985e-01
2.020000000000000018e+00 -3.967294999657527965e-01
2.030000000000000249e+00 -3.787454549942993465e-01
2.040000000000000036e+00 -3.581801197214906085e-01
2.049999999999999822e+00 -3.366101638082821812e-01
2.060000000000000053e+00 -3.152281442751502794e-01
2.069999999999999840e+00 -2.951358232642837254e-01
2.080000000000000071e+00 -2.775543804413743154e-01
2.089999999999999858e+00 -2.630794114933202588e-01
2.100000000000000089e+00 -2.524492455434123039e-01
2.109999999999999876e+00 -2.458606876352636694e-01
2.120000000000000107e+00 -2.432499725483188713e-01
2.129999999999999893e+00 -2.444467180300313736e-01
2.140000000000000124e+00 -2.486023117398800109e-01
2.149999999999999911e+00 -2.551125451453983839e-01
2.160000000000000142e+00 -2.626965144979669375e-01
2.169999999999999929e+00 -2.701795736367924028e-01
2.180000000000000160e+00 -2.763548087972650946e-01
2.189999999999999947e+00 -2.795945660008070655e-01
2.200000000000000178e+00 -2.790018081944662942e-01
2.209999999999999964e+00 -2.730488623710418117e-01
2.220000000000000195e+00 -2.610665756197786402e-01
2.229999999999999982e+00 -2.422305723785568021e-01
2.240000000000000213e+00 -2.160458441683795194e-01
2.250000000000000000e+00 -1.827720664815533080e-01
2.260000000000000231e+00 -1.421356307007660136e-01
2.270000000000000018e+00 -9.550694532033163209e-02
2.280000000000000249e+00 -4.301604938913279608e-02
2.290000000000000036e+00 1.326059766698145514e-02
2.300000000000000266e+00 7.238387291174322447e-02
2.310000000000000053e+00 1.322672932735161067e-01
2.319999999999999840e+00 1.911265338598860108e-01
2.330000000000000071e+00 2.471408130294523164e-01
2.339999999999999858e+00 2.983090491606976702e-01
2.350000000000000089e+00 3.429148586065210447e-01
2.359999999999999876e+00 3.795555113760774590e-01
2.370000000000000107e+00 4.064681730739199694e-01
2.379999999999999893e+00 4.235160189452229496e-01
2.390000000000000124e+00 4.288466831337447993e-01
2.399999999999999911e+00 4.239220951683805305e-01
2.410000000000000142e+00 4.069312241836077204e-01
2.419999999999999929e+00 3.805322091254146888e-01
2.430000000000000160e+00 3.441420394627975887e-01
2.439999999999999947e+00 3.003371231395580709e-01
2.450000000000000178e+00 2.500402547931019903e-01
2.459999999999999964e+00 1.955992483410683436e-01
2.470000000000000195e+00 1.388815536120101279e-01
2.479999999999999982e+00 8.214902552845555761e-02
2.490000000000000213e+00 2.736318370002808337e-02
2.500000000000000000e+00 -2.309699535227711584e-02
2.510000000000000231e+00 -6.805122060932697337e-02
2.520000000000000018e+00 -1.048501967612172625e-01
2.530000000000000249e+00 -1.336420806638507208e-01
2.540000000000000036e+00 -1.518837208143520856e-01
2.550000000000000266e+00 -1.607235436143075458e-01
2.560000000000000053e+00 -1.587696734380219243e-01
2.569999999999999840e+00 -1.473619484678553859e-01
2.580000000000000071e+00 -1.266268552431996097e-01
2.589999999999999858e+00 -9.796280729541502474e-02
2.600000000000000089e+00 -6.276080667944756997e-02
2.609999999999999876e+00 -2.251908969850741071e-02
2.620000000000000107e+00 2.072774891090113647e-02
2.629999999999999893e+00 6.522536115866779671e-02
2.640000000000000124e+00 1.091107591973144442e-01
2.649999999999999911e+00 1.501983982810689289e-01
2.660000000000000142e+00 1.874182475337907439e-01
2.669999999999999929e+00 2.185781390675841374e-01
2.680000000000000160e+00 2.432907602597217112e-01
2.689999999999999947e+00 2.600773300910380059e-01
2.700000000000000178e+00 2.689310170381530307e-01
2.709999999999999964e+00 2.695430447057855505e-01
2.720000000000000195e+00 2.621335024693884352e-01
2.729999999999999982e+00 2.476093058648371481e-01
2.740000000000000213e+00 2.264096520630922982e-01
2.750000000000000000e+00 2.003128600503580881e-01
2.760000000000000231e+00 1.700918711227952518e-01
2.770000000000000018e+00 1.377583736370217860e-01
2.780000000000000249e+00 1.046156891294296176e-01
2.790000000000000036e+00 7.226726981675321571e-02
2.800000000000000266e+00 4.230987742382267408e-02
2.810000000000000053e+00 1.582882663792276393e-02
2.819999999999999840e+00 -5.895059043024522549e-03
2.830000000000000071e+00 -2.212932430722008154e-02
2.839999999999999858e+00 -3.242421804580634254e-02
2.850000000000000089e+00 -3.629798782599171630e-02
2.859999999999999876e+00 -3.433522996646482667e-02
2.870000000000000107e+00 -2.631490253523615860e-02
2.879999999999999893e+00 -1.369930600826132702e-02
2.890000000000000124e+00 3.349589982696599046e-03
2.899999999999999911e+00 2.301175815788121873e-02
2.910000000000000142e+00 4.440547913636310601e-02
2.919999999999999929e+00 6.599319329745485796e-02
2.930000000000000160e+00 8.644733634067271189e-02
2.939999999999999947e+00 1.045150589688036979e-01
2.950000000000000178e+00 1.190202181325778902e-01
2.959999999999999964e+00 1.288988006450675627e-01
2.970000000000000195e+00 1.336574165305380590e-01
2.979999999999999982e+00 1.323682348441177492e-01
2.990000000000000213e+00 1.255122899971282957e-01
3.000000000000000000e+00 1.123456306811928124e-01
3.010000000000000231e+00 9.422863632111928844e-02
3.020000000000000018e+00 7.094111726447868693e-02
3.030000000000000249e+00 4.416642642971754795e-02
3.040000000000000036e+00 1.455603575570260308e-02
3.050000000000000266e+00 -1.635050790935430043e-02
3.060000000000000053e+00 -4.731484914644579209e-02
3.070000000000000284e+00 -7.689557495128333808e-02
3.080000000000000071e+00 -1.038511326756776793e-01
3.089999999999999858e+00 -1.267444593169960720e-01
3.100000000000000089e+00 -1.449116932039787309e-01
3.109999999999999876e+00 -1.568563129712697846e-01
3.120000000000000107e+00 -1.629046634703226748e-01
3.129999999999999893e+00 -1.615330533854485717e-01
3.140000000000000124e+00 -1.539863008261609378e-01
3.149999999999999911e+00 -1.394558151342980834e-01
3.160000000000000142e+00 -1.193552305913845452e-01
3.169999999999999929e+00 -9.391590344500899690e-02
3.180000000000000160e+00 -6.452169171204991116e-02
3.189999999999999947e+00 -3.220765750227534696e-02
3.200000000000000178e+00 1.641973280417549121e-03
3.209999999999999964e+00 3.569548656598171832e-02
3.220000000000000195e+00 6.846908639646483163e-02
3.229999999999999982e+00 9.893097822022089982e-02
3.240000000000000213e+00 1.254018740038961854e-01
3.250000000000000000e+00 1.476056762540325362e-01
3.260000000000000231e+00 1.638426029484669755e-01
3.270000000000000018e+00 1.745325763749624171e-01
3.280000000000000249e+00 1.786169090627432177e-01
3.290000000000000036e+00 1.767377894289069717e-01
3.300000000000000266e+00 1.687900595649239610e-01
3.310000000000000053e+00 1.555230682548918997e-01
3.320000000000000284e+00 1.376996988462059202e-01
3.330000000000000071e+00 1.161720667001525514e-01
3.339999999999999858e+00 9.221456727024243683e-02
3.350000000000000089e+00 6.685859893304045565e-02
3.359999999999999876e+00 4.137060234802311665e-02
3.370000000000000107e+00 1.705886354782609055e-02
3.379999999999999893e+00 -5.261723926241927175e-03
3.390000000000000124e+00 -2.422963685129941869e-02
3.399999999999999911e+00 -3.950225997859843630e-02
3.410000000000000142e+00 -5.012970902305997900e-02
3.419999999999999929e+00 -5.606316791038145481e-02
3.430000000000000160e+00 -5.708568405799070711e-02
3.439999999999999947e+00 -5.334751148182500374e-02
3.450000000000000178e+00 -4.541023938246305236e-02
3.459999999999999964e+00 -3.361871858585693817e-02
3.470000000000000195e+00 -1.908802252711089276e-02
3.479999999999999982e+00 -2.429761132213082396e-03
3.490000000000000213e+00 1.511212080741250463e-02
3.500000000000000000e+00 3.256014884894179590e-02
3.510000000000000231e+00 4.894863517675064613e-02
3.520000000000000018e+00 6.314760499069931032e-02
3.530000000000000249e+00 7.452328053580850598e-02
3.540000000000000036e+00 8.222484683616866630e-02
3.550000000000000266e+00 8.585476233135093393e-02
3.560000000000000053e+00 8.518616319821543936e-02
3.570000000000000284e+00 8.000980367295465467e-02
3.580000000000000071e+00 7.083743524376702461e-02
3.589999999999999858e+00 5.768119701582201386e-02
3.600000000000000089e+00 4.164170380570900165e-02
3.609999999999999876e+00 2.306396841732957087e-02
3.620000000000000107e+00 3.248818746036199936e-03
3.629999999999999893e+00 -1.694056125788876571e-02
3.640000000000000124e+00 -3.641245682433763564e-02
3.649999999999999911e+00 -5.403736497579532394e-02
3.660000000000000142e+00 -6.891465486386587347e-02
3.669999999999999929e+00 -8.011617291779772609e-02
3.680000000000000160e+00 -8.685109246816123674e-02
3.689999999999999947e+00 -8.879743047750419949e-02
3.700000000000000178e+00 -8.523390450123423390e-02
3.709999999999999964e+00 -7.665582046011693018e-02
3.720000000000000195e+00 -6.245429155961591122e-02
3.729999999999999982e+00 -4.384673516365062557e-02
3.740000000000000213e+00 -2.061366858408086866e-02
3.750000000000000000e+00 5.777393217351789803e-03
3.760000000000000231e+00 3.483251169426688360e-02
3.770000000000000018e+00 6.525203344555861873e-02
3.780000000000000249e+00 9.604817335345983143e-02
3.790000000000000036e+00 1.260420486025197184e-01
3.800000000000000266e+00 1.542230639063466302e-01
3.810000000000000053e+00 1.794484627315544867e-01
3.820000000000000284e+00 2.011491289349109091e-01
3.830000000000000071e+00 2.181575433154619159e-01
3.839999999999999858e+00 2.306743283381074150e-01
3.850000000000000089e+00 2.375211120600797809e-01
3.859999999999999876e+00 2.396235881311760962e-01
