# [DEFAULT]
# # input and output specifications
# dataformat = QA
# outputtype = gr
# 
# # PDF calculation setup
# mode = xray
# wavelength = 
# composition = Cl4.0Cr1.0Na1.0
# bgscale = 1.0
# rpoly = 0.9
# qmaxinst = 28
# qmin = 0.0
# qmax = 22
# rmin = 0.0
# rmax = 30.0
# rstep = 0.01
# 
# # End of config --------------------------------------------------------------
# 
# #### start data
# #S 1
# #L r(Å)  G(Å$^$)
# 
0.000000000000000000e+00 0.000000000000000000e+00
1.000000000000000021e-02 -2.040003818279084551e-03
2.000000000000000042e-02 -4.241151347926993068e-03
2.999999999999999889e-02 -6.787549118605696805e-03
4.000000000000000083e-02 -9.749450836439842519e-03
5.000000000000000278e-02 -1.321913394243276300e-02
5.999999999999999778e-02 -1.715716586561003010e-02
7.000000000000000666e-02 -2.148801713227110194e-02
8.000000000000000167e-02 -2.604281228123072472e-02
8.999999999999999667e-02 -3.059456478731473542e-02
1.000000000000000056e-01 -3.481855586950141634e-02
1.100000000000000006e-01 -3.845185956164968999e-02
1.199999999999999956e-01 -4.099097805083669332e-02
1.300000000000000044e-01 -4.228926456551566210e-02
1.400000000000000133e-01 -4.175660398459714318e-02
1.499999999999999944e-01 -3.940315075797726913e-02
1.600000000000000033e-01 -3.480430768162044025e-02
1.700000000000000122e-01 -2.807118648353234061e-02
1.799999999999999933e-01 -1.913327353264794931e-02
1.900000000000000022e-01 -8.222510786313249470e-03
2.000000000000000111e-01 4.326777411404331142e-03
2.099999999999999922e-01 1.810348313518085270e-02
2.200000000000000011e-01 3.247978529912418783e-02
2.300000000000000100e-01 4.677228964731510591e-02
2.399999999999999911e-01 6.032665073062094818e-02
2.500000000000000000e-01 7.208804057377712904e-02
2.600000000000000089e-01 8.162956617013431004e-02
2.700000000000000178e-01 8.779525207774023510e-02
2.800000000000000266e-01 9.033122127688539282e-02
2.899999999999999800e-01 8.838591468357916148e-02
2.999999999999999889e-01 8.183570220081858027e-02
3.099999999999999978e-01 7.046269559195852961e-02
3.200000000000000067e-01 5.428846885238317738e-02
3.300000000000000155e-01 3.386819783513769777e-02
3.400000000000000244e-01 9.473913640558908472e-03
3.500000000000000333e-01 -1.769285004374325856e-02
3.599999999999999867e-01 -4.691091945032302424e-02
3.699999999999999956e-01 -7.672433607147173540e-02
3.800000000000000044e-01 -1.057432991705421488e-01
3.900000000000000133e-01 -1.326721773426916828e-01
4.000000000000000222e-01 -1.557197938581341701e-01
4.100000000000000311e-01 -1.737543458599765944e-01
4.199999999999999845e-01 -1.852044633510248339e-01
4.299999999999999933e-01 -1.889883532828007806e-01
4.400000000000000022e-01 -1.843906428472152359e-01
4.500000000000000111e-01 -1.703367024667871155e-01
4.600000000000000200e-01 -1.473970135536123438e-01
4.700000000000000289e-01 -1.146081928395896732e-01
4.799999999999999822e-01 -7.389473470876981032e-02
4.899999999999999911e-01 -2.469524675795871718e-02
5.000000000000000000e-01 3.024845232919057270e-02
5.100000000000000089e-01 9.014866515715741491e-02
5.200000000000000178e-01 1.524454193258217294e-01
5.300000000000000266e-01 2.151352787900920327e-01
5.400000000000000355e-01 2.757235482061212717e-01
5.500000000000000444e-01 3.318252447594745025e-01
5.600000000000000533e-01 3.807766870947955629e-01
5.700000000000000622e-01 4.208281004117481183e-01
5.799999999999999600e-01 4.489316458550394739e-01
5.899999999999999689e-01 4.649129921026637358e-01
5.999999999999999778e-01 4.652743285637494508e-01
6.099999999999999867e-01 4.517666961956643412e-01
6.199999999999999956e-01 4.214012538684605569e-01
6.300000000000000044e-01 3.769197761586655093e-01
6.400000000000000133e-01 3.172999752656001649e-01
6.500000000000000222e-01 2.452607197373677661e-01
6.600000000000000311e-01 1.619827171623140216e-01
6.700000000000000400e-01 7.021273316186724123e-02
6.800000000000000488e-01 -2.730931068653225102e-02
6.900000000000000577e-01 -1.275317060480214426e-01
7.000000000000000666e-01 -2.272788018617326045e-01
7.099999999999999645e-01 -3.227990041401183618e-01
7.199999999999999734e-01 -4.118336529068383767e-01
7.299999999999999822e-01 -4.895771691769034706e-01
7.399999999999999911e-01 -5.554362694433224723e-01
7.500000000000000000e-01 -6.049518450671936831e-01
7.600000000000000089e-01 -6.382784873619926636e-01
7.700000000000000178e-01 -6.527030076892654797e-01
7.800000000000000266e-01 -6.486798843139376380e-01
7.900000000000000355e-01 -6.259635803460323888e-01
8.000000000000000444e-01 -5.851512657260826700e-01
8.100000000000000533e-01 -5.284779721496143390e-01
8.200000000000000622e-01 -4.568268842480414094e-01
8.300000000000000711e-01 -3.742176447230651237e-01
8.399999999999999689e-01 -2.822185257094099731e-01
8.499999999999999778e-01 -1.853462263220695683e-01
8.599999999999999867e-01 -8.647150135646197722e-02
8.699999999999999956e-01 1.070576507545084426e-02
8.800000000000000044e-01 1.024590122502886391e-01
8.900000000000000133e-01 1.860095467860041762e-01
9.000000000000000222e-01 2.581070081144989370e-01
9.100000000000000311e-01 3.164692980525022348e-01
9.200000000000000400e-01 3.595782233919236348e-01
9.300000000000000488e-01 3.853625711766881512e-01
9.400000000000000577e-01 3.947516736138735882e-01
9.500000000000000666e-01 3.858641056209859976e-01
9.599999999999999645e-01 3.620746904052570270e-01
9.699999999999999734e-01 3.219756026289344319e-01
9.799999999999999822e-01 2.703093865994877221e-01
9.899999999999999911e-01 2.077089063239739575e-01
1.000000000000000000e+00 1.383293163052243258e-01
1.010000000000000009e+00 6.465903750862064814e-02
1.020000000000000018e+00 -9.690980032542725539e-03
1.030000000000000027e+00 -8.162894866923704751e-02
1.040000000000000036e+00 -1.478038482303130341e-01
1.050000000000000044e+00 -2.058948029108733091e-01
1.060000000000000053e+00 -2.525364568124429665e-01
1.070000000000000062e+00 -2.872959992777595617e-01
1.080000000000000071e+00 -3.066937525409527132e-01
1.090000000000000080e+00 -3.125196715342554721e-01
1.100000000000000089e+00 -3.020651432593166597e-01
1.110000000000000098e+00 -2.782912411580197865e-01
1.120000000000000107e+00 -2.405959832637247775e-01
1.130000000000000115e+00 -1.919424557567657452e-01
1.140000000000000124e+00 -1.338459951093305400e-01
1.150000000000000133e+00 -6.922765134677782983e-02
1.159999999999999920e+00 -8.465849174058778792e-04
1.169999999999999929e+00 6.824086567931102187e-02
1.179999999999999938e+00 1.352619445265759168e-01
1.189999999999999947e+00 1.967683323709411014e-01
1.199999999999999956e+00 2.512298655409645476e-01
1.209999999999999964e+00 2.946369412554744605e-01
1.219999999999999973e+00 3.272172059189835669e-01
1.229999999999999982e+00 3.457581169630947193e-01
1.239999999999999991e+00 3.512380836714393828e-01
1.250000000000000000e+00 3.423047632925665384e-01
1.260000000000000009e+00 3.202750427228076568e-01
1.270000000000000018e+00 2.858925414154371292e-01
1.280000000000000027e+00 2.407113628155705676e-01
1.290000000000000036e+00 1.871327872548623483e-01
1.300000000000000044e+00 1.270820092581625149e-01
1.310000000000000053e+00 6.366048343022079337e-02
1.320000000000000062e+00 -5.608340084110839674e-04
1.330000000000000071e+00 -6.292867878757571476e-02
1.340000000000000080e+00 -1.201715315583919141e-01
1.350000000000000089e+00 -1.707136750349143306e-01
1.360000000000000098e+00 -2.115046036567068966e-01
1.370000000000000107e+00 -2.417031420825228039e-01
1.380000000000000115e+00 -2.595233389085421782e-01
1.390000000000000124e+00 -2.645475048872035773e-01
1.400000000000000133e+00 -2.568467663589775185e-01
1.409999999999999920e+00 -2.363020268787411060e-01
1.419999999999999929e+00 -2.048348893984995589e-01
1.429999999999999938e+00 -1.627258322932255696e-01
1.439999999999999947e+00 -1.131548534114060478e-01
1.449999999999999956e+00 -5.708618507262133712e-02
1.459999999999999964e+00 2.097498631490014951e-03
1.469999999999999973e+00 6.229058380832987879e-02
1.479999999999999982e+00 1.208722324306671370e-01
1.489999999999999991e+00 1.752683482666206327e-01
1.500000000000000000e+00 2.234248960193417344e-01
1.510000000000000009e+00 2.633689523282378153e-01
1.520000000000000018e+00 2.933600681581364222e-01
1.530000000000000027e+00 3.128523944446469640e-01
1.540000000000000036e+00 3.202805059636221197e-01
1.550000000000000044e+00 3.168855057004304476e-01
1.560000000000000053e+00 3.013295792720653288e-01
1.570000000000000062e+00 2.763118089794113219e-01
1.580000000000000071e+00 2.413769179757055405e-01
1.590000000000000080e+00 1.995646298970152888e-01
1.600000000000000089e+00 1.518561700563639538e-01
1.610000000000000098e+00 1.008655856122138150e-01
1.620000000000000107e+00 4.850059652268670640e-02
1.630000000000000115e+00 -2.951570351881973794e-03
1.640000000000000124e+00 -5.159007787241214060e-02
1.650000000000000133e+00 -9.528611164922794197e-02
1.660000000000000142e+00 -1.330118475888403540e-01
1.669999999999999929e+00 -1.626801469832843405e-01
1.679999999999999938e+00 -1.847002130752914417e-01
1.689999999999999947e+00 -1.970542407598882551e-01
1.699999999999999956e+00 -2.014294776073021764e-01
1.709999999999999964e+00 -1.968928465514649673e-01
1.719999999999999973e+00 -1.853277513080891226e-01
1.729999999999999982e+00 -1.672028961170833328e-01
1.739999999999999991e+00 -1.443730220075978010e-01
1.750000000000000000e+00 -1.182948617596280838e-01
1.760000000000000009e+00 -9.081304750278806903e-02
1.770000000000000018e+00 -6.364691315762868729e-02
1.780000000000000027e+00 -3.873641329839106612e-02
1.790000000000000036e+00 -1.727155709591401272e-02
1.800000000000000044e+00 -1.376658710787986850e-03
1.810000000000000053e+00 8.815529785609326624e-03
1.820000000000000062e+00 1.132274895535242271e-02
1.830000000000000071e+00 6.876793508463433652e-03
1.840000000000000080e+00 -5.556972926604254563e-03
1.850000000000000089e+00 -2.497235630773822837e-02
1.860000000000000098e+00 -5.117368556619449060e-02
1.870000000000000107e+00 -8.300982571085588346e-02
1.880000000000000115e+00 -1.192913169395390383e-01
1.890000000000000124e+00 -1.587123162030350254e-01
1.900000000000000133e+00 -1.996468320808120755e-01
1.910000000000000142e+00 -2.405380065789713140e-01
1.919999999999999929e+00 -2.800295468901138340e-01
1.929999999999999938e+00 -3.162158422844453809e-01
1.939999999999999947e+00 -3.484908367715999211e-01
1.949999999999999956e+00 -3.750915091282303604e-01
1.959999999999999964e+00 -3.959597672802358526e-01
1.969999999999999973e+00 -4.100796271513083013e-01
1.979999999999999982e+00 -4.177046716055731745e-01
1.989999999999999991e+00 -4.188559324152952290e-01
2.000000000000000000e+00 -4.139892646245074692e-01
2.010000000000000231e+00 -4.040752831496116082e-01
2.020000000000000018e+00 -3.897726979865700492e-01
2.030000000000000249e+00 -3.725918979071087822e-01
2.040000000000000036e+00 -3.534675034183508702e-01
2.049999999999999822e+00 -3.338608467841761018e-01
2.060000000000000053e+00 -3.150246513519153746e-01
2.069999999999999840e+00 -2.979152354439334460e-01
2.080000000000000071e+00 -2.837330567065988185e-01
2.089999999999999858e+00 -2.729375742504019930e-01
2.100000000000000089e+00 -2.661742906830526501e-01
2.109999999999999876e+00 -2.635050498822280596e-01
2.120000000000000107e+00 -2.647422552563576947e-01
2.129999999999999893e+00 -2.695670407413374159e-01
2.140000000000000124e+00 -2.770282756948652114e-01
2.149999999999999911e+00 -2.863443939169625918e-01
2.160000000000000142e+00 -2.962051866051472193e-01
2.169999999999999929e+00 -3.052206448177743336e-01
2.180000000000000160e+00 -3.122416812845714151e-01
2.189999999999999947e+00 -3.154660058147986113e-01
2.200000000000000178e+00 -3.140768978158695046e-01
2.209999999999999964e+00 -3.064717921372944742e-01
2.220000000000000195e+00 -2.920646067328616091e-01
2.229999999999999982e+00 -2.700695387256708546e-01
2.240000000000000213e+00 -2.400787589669210742e-01
2.250000000000000000e+00 -2.024850193283892208e-01
2.260000000000000231e+00 -1.571207573843406979e-01
2.270000000000000018e+00 -1.055376627707319409e-01
2.280000000000000249e+00 -4.801506716371701372e-02
2.290000000000000036e+00 1.320244147294612549e-02
2.300000000000000266e+00 7.696714972419033129e-02
2.310000000000000053e+00 1.410757809794604689e-01
2.319999999999999840e+00 2.035232925503827894e-01
2.330000000000000071e+00 2.624024718728167893e-01
2.339999999999999858e+00 3.155476196548477330e-01
2.350000000000000089e+00 3.611633612313367991e-01
2.359999999999999876e+00 3.977928656573146982e-01
2.370000000000000107e+00 4.235891428485137888e-01
2.379999999999999893e+00 4.384989002163868776e-01
2.390000000000000124e+00 4.405835837857092208e-01
2.399999999999999911e+00 4.315191481969498088e-01
2.410000000000000142e+00 4.094268835857483024e-01
2.419999999999999929e+00 3.772490618663795203e-01
2.430000000000000160e+00 3.344444241250434935e-01
2.439999999999999947e+00 2.838386959470180493e-01
2.450000000000000178e+00 2.265051579879900079e-01
2.459999999999999964e+00 1.650111573364616002e-01
2.470000000000000195e+00 1.014183583987299520e-01
2.479999999999999982e+00 3.820442780659447091e-02
2.490000000000000213e+00 -2.250910384835879546e-02
2.500000000000000000e+00 -7.810379353396618152e-02
2.510000000000000231e+00 -1.273449226987149185e-01
2.520000000000000018e+00 -1.673003341594328786e-01
2.530000000000000249e+00 -1.982036263118570341e-01
2.540000000000000036e+00 -2.172285879709404677e-01
2.550000000000000266e+00 -2.256908261764756229e-01
2.560000000000000053e+00 -2.220314051975687542e-01
2.569999999999999840e+00 -2.077429254814052995e-01
2.580000000000000071e+00 -1.829390681544915132e-01
2.589999999999999858e+00 -1.491472582193490160e-01
2.600000000000000089e+00 -1.078805510650994309e-01
2.609999999999999876e+00 -6.075047203700392057e-02
2.620000000000000107e+00 -1.000019326721620846e-02
2.629999999999999893e+00 4.249726067470811774e-02
2.640000000000000124e+00 9.465033263821998055e-02
2.649999999999999911e+00 1.441221420226148908e-01
2.660000000000000142e+00 1.896581169000658984e-01
2.669999999999999929e+00 2.288779787044641079e-01
2.680000000000000160e+00 2.612745471979318057e-01
2.689999999999999947e+00 2.851945847063184214e-01
2.700000000000000178e+00 3.005451009435816667e-01
2.709999999999999964e+00 3.069112724600212005e-01
2.720000000000000195e+00 3.044344880861598601e-01
2.729999999999999982e+00 2.940167811644326390e-01
2.740000000000000213e+00 2.760105500550096291e-01
2.750000000000000000e+00 2.522971391766145044e-01
2.760000000000000231e+00 2.235510443239785150e-01
2.770000000000000018e+00 1.919681117764095724e-01
2.780000000000000249e+00 1.587762472216010523e-01
2.790000000000000036e+00 1.257718804328391837e-01
2.800000000000000266e+00 9.454871293888045258e-02
2.810000000000000053e+00 6.633527950316789323e-02
2.819999999999999840e+00 4.246741293514133542e-02
2.830000000000000071e+00 2.377734082641097535e-02
2.839999999999999858e+00 1.079135874297505043e-02
2.850000000000000089e+00 4.057246307313148483e-03
2.859999999999999876e+00 3.057670256288883524e-03
2.870000000000000107e+00 8.054467030684841003e-03
2.879999999999999893e+00 1.762486817530914754e-02
2.890000000000000124e+00 3.162693377302648601e-02
2.899999999999999911e+00 4.824943237866690521e-02
2.910000000000000142e+00 6.660917945680484842e-02
2.919999999999999929e+00 8.515612820348363032e-02
2.930000000000000160e+00 1.025422919843672898e-01
2.939999999999999947e+00 1.174910232809320276e-01
2.950000000000000178e+00 1.287985816416544194e-01
2.959999999999999964e+00 1.353715409012110904e-01
2.970000000000000195e+00 1.366986637785049252e-01
2.979999999999999982e+00 1.318215264520168351e-01
2.990000000000000213e+00 1.212278576520858103e-01
3.000000000000000000e+00 1.041483599599438981e-01
3.010000000000000231e+00 8.197913819984631312e-02
3.020000000000000018e+00 5.449565998603647654e-02
3.030000000000000249e+00 2.343484909063387606e-02
3.040000000000000036e+00 -1.051904658985259103e-02
3.050000000000000266e+00 -4.576556838162959551e-02
3.060000000000000053e+00 -8.100288048225048887e-02
3.070000000000000284e+00 -1.147158882590779277e-01
3.080000000000000071e+00 -1.455913895909696221e-01
3.089999999999999858e+00 -1.720968631622154521e-01
3.100000000000000089e+00 -1.935190212987867586e-01
3.109999999999999876e+00 -2.082344388370645782e-01
3.120000000000000107e+00 -2.165737542723005782e-01
3.129999999999999893e+00 -2.168483996356619647e-01
3.140000000000000124e+00 -2.103663412151385859e-01
3.149999999999999911e+00 -1.961763417376546914e-01
3.160000000000000142e+00 -1.757606271001412312e-01
3.169999999999999929e+00 -1.492765545731334909e-01
3.180000000000000160e+00 -1.181641758575228962e-01
3.189999999999999947e+00 -8.346595841294934814e-02
3.200000000000000178e+00 -4.660944909335350966e-02
3.209999999999999964e+00 -9.007311177095491533e-03
3.220000000000000195e+00 2.781835869294533095e-02
3.229999999999999982e+00 6.270547217663371975e-02
3.240000000000000213e+00 9.392684085278961426e-02
3.250000000000000000e+00 1.210641131504015117e-01
3.260000000000000231e+00 1.423384821558377200e-01
3.270000000000000018e+00 1.580533555730668505e-01
3.280000000000000249e+00 1.670435741883486425e-01
3.290000000000000036e+00 1.698650246141320264e-01
3.300000000000000266e+00 1.663121637897353733e-01
3.310000000000000053e+00 1.570611425297976094e-01
3.320000000000000284e+00 1.428155188502804041e-01
3.330000000000000071e+00 1.243536481821963524e-01
3.339999999999999858e+00 1.029549076242236155e-01
3.350000000000000089e+00 7.956935775018071644e-02
3.359999999999999876e+00 5.554041781494591795e-02
3.370000000000000107e+00 3.208861389773863537e-02
3.379999999999999893e+00 1.015504118040029373e-02
3.390000000000000124e+00 -8.941775727689465006e-03
3.399999999999999911e+00 -2.474478814699305335e-02
3.410000000000000142e+00 -3.628608690485354143e-02
3.419999999999999929e+00 -4.342377401841544110e-02
3.430000000000000160e+00 -4.588031522305185961e-02
3.439999999999999947e+00 -4.372771859401283073e-02
3.450000000000000178e+00 -3.745254509131479281e-02
3.459999999999999964e+00 -2.732648229762276240e-02
3.470000000000000195e+00 -1.440347777311331082e-02
3.479999999999999982e+00 7.824424721654356027e-04
3.490000000000000213e+00 1.701419446415214018e-02
3.500000000000000000e+00 3.339496842284716410e-02
3.510000000000000231e+00 4.895389855846460359e-02
3.520000000000000018e+00 6.261977830478515639e-02
3.530000000000000249e+00 7.374436213019235076e-02
3.540000000000000036e+00 8.149922435307276058e-02
3.550000000000000266e+00 8.547194921928774614e-02
3.560000000000000053e+00 8.542098297837485976e-02
3.570000000000000284e+00 8.112555071787574956e-02
3.580000000000000071e+00 7.305395609869944074e-02
3.589999999999999858e+00 6.120975835212435351e-02
3.600000000000000089e+00 4.663535390936152103e-02
3.609999999999999876e+00 2.966739908836006981e-02
3.620000000000000107e+00 1.155121319739952496e-02
3.629999999999999893e+00 -6.866988969041881545e-03
3.640000000000000124e+00 -2.453223960374979751e-02
3.649999999999999911e+00 -4.033534416368011327e-02
3.660000000000000142e+00 -5.339661598955973421e-02
3.669999999999999929e+00 -6.280186251654272522e-02
3.680000000000000160e+00 -6.777019110193713280e-02
3.689999999999999947e+00 -6.798239897692834321e-02
3.700000000000000178e+00 -6.271937974986969977e-02
3.709999999999999964e+00 -5.246910879841457098e-02
3.720000000000000195e+00 -3.661890427667362224e-02
3.729999999999999982e+00 -1.637433719509149774e-02
3.740000000000000213e+00 8.492692477933123235e-03
3.750000000000000000e+00 3.652425553893103027e-02
3.760000000000000231e+00 6.723553790146086229e-02
3.770000000000000018e+00 9.933080921404231767e-02
3.780000000000000249e+00 1.318253453884030146e-01
3.790000000000000036e+00 1.635368301707393890e-01
3.800000000000000266e+00 1.934473780942194687e-01
3.810000000000000053e+00 2.204005416986017929e-01
3.820000000000000284e+00 2.438104219817474883e-01
3.830000000000000071e+00 2.624806582722204462e-01
3.839999999999999858e+00 2.765926406680165872e-01
3.850000000000000089e+00 2.849171882353241370e-01
3.859999999999999876e+00 2.883658507130751336e-01
