# [DEFAULT]
# # input and output specifications
# dataformat = QA
# outputtype = gr
# 
# # PDF calculation setup
# mode = xray
# wavelength = 
# composition = Cl4.0Cr1.0Na1.0
# bgscale = 1.0
# rpoly = 0.9
# qmaxinst = 28
# qmin = 0.0
# qmax = 22
# rmin = 0.0
# rmax = 30.0
# rstep = 0.01
# 
# # End of config --------------------------------------------------------------
# 
# #### start data
# #S 1
# #L r(Å)  G(Å$^$)
# 
0.000000000000000000e+00 0.000000000000000000e+00
1.000000000000000021e-02 -4.395516504277760528e-03
2.000000000000000042e-02 -8.824494587602630183e-03
2.999999999999999889e-02 -1.331567648079673254e-02
4.000000000000000083e-02 -1.785932888270995444e-02
5.000000000000000278e-02 -2.242254874446782120e-02
5.999999999999999778e-02 -2.692234453249297763e-02
7.000000000000000666e-02 -3.123934708469692720e-02
8.000000000000000167e-02 -3.519082543737499930e-02
8.999999999999999667e-02 -3.860675213829729835e-02
1.000000000000000056e-01 -4.118112349151484969e-02
1.100000000000000006e-01 -4.279005116372740225e-02
1.199999999999999956e-01 -4.299365780703012785e-02
1.300000000000000044e-01 -4.181394115889259383e-02
1.400000000000000133e-01 -3.878662944269063023e-02
1.499999999999999944e-01 -3.406274797903219992e-02
1.600000000000000033e-01 -2.737457117661926120e-02
1.700000000000000122e-01 -1.893666210543551096e-02
1.799999999999999933e-01 -8.801899317099735540e-03
1.900000000000000022e-01 2.723699736303499073e-03
2.000000000000000111e-01 1.527100049021886535e-02
2.099999999999999922e-01 2.838221720985939500e-02
2.200000000000000011e-01 4.150583752702567686e-02
2.300000000000000100e-01 5.394852467331234108e-02
2.399999999999999911e-01 6.522431502697821626e-02
2.500000000000000000e-01 7.432553214330046842e-02
2.600000000000000089e-01 8.102628694045690971e-02
2.700000000000000178e-01 8.430509837150521046e-02
2.800000000000000266e-01 8.407749099506062196e-02
2.899999999999999800e-01 7.966612658215140030e-02
2.999999999999999889e-01 7.108965904466331420e-02
3.099999999999999978e-01 5.826464483880921391e-02
3.200000000000000067e-01 4.133345725274484989e-02
3.300000000000000155e-01 2.087952406684613627e-02
3.400000000000000244e-01 -2.729620342164763847e-03
3.500000000000000333e-01 -2.840078434234383220e-02
3.599999999999999867e-01 -5.536258677316630017e-02
3.699999999999999956e-01 -8.237676438674385038e-02
3.800000000000000044e-01 -1.081081924999174049e-01
3.900000000000000133e-01 -1.315064529422865780e-01
4.000000000000000222e-01 -1.509590147940969296e-01
4.100000000000000311e-01 -1.655667073746766582e-01
4.199999999999999845e-01 -1.739922636561175295e-01
4.299999999999999933e-01 -1.753840782160266398e-01
4.400000000000000022e-01 -1.692118352258874803e-01
4.500000000000000111e-01 -1.546383422266359164e-01
4.600000000000000200e-01 -1.322731226274207195e-01
4.700000000000000289e-01 -1.013923211703589289e-01
4.799999999999999822e-01 -6.375556050012769205e-02
4.899999999999999911e-01 -1.901134650557680106e-02
5.000000000000000000e-01 3.042733378047928969e-02
5.100000000000000089e-01 8.375878752835842767e-02
5.200000000000000178e-01 1.387657081787438407e-01
5.300000000000000266e-01 1.936524142697488848e-01
5.400000000000000355e-01 2.462851712730319553e-01
5.500000000000000444e-01 2.946176753152121575e-01
5.600000000000000533e-01 3.363957068039588605e-01
5.700000000000000622e-01 3.701952446710362055e-01
5.799999999999999600e-01 3.934647664777956577e-01
5.899999999999999689e-01 4.061812600568882048e-01
5.999999999999999778e-01 4.054563383934987053e-01
6.099999999999999867e-01 3.929209257372608399e-01
6.199999999999999956e-01 3.661813018467008352e-01
6.300000000000000044e-01 3.276875112124786327e-01
6.400000000000000133e-01 2.767476007168608310e-01
6.500000000000000222e-01 2.157722613730372607e-01
6.600000000000000311e-01 1.459114835013974598e-01
6.700000000000000400e-01 6.959242350195145310e-02
6.800000000000000488e-01 -1.079750823526994669e-02
6.900000000000000577e-01 -9.257402024870475810e-02
7.000000000000000666e-01 -1.731024135035236777e-01
7.099999999999999645e-01 -2.491149490125298127e-01
7.199999999999999734e-01 -3.188804513782785288e-01
7.299999999999999822e-01 -3.782743055553849376e-01
7.399999999999999911e-01 -4.270525573857197332e-01
7.500000000000000000e-01 -4.615101159085560623e-01
7.600000000000000089e-01 -4.820205676092683134e-01
7.700000000000000178e-01 -4.864753867345001370e-01
7.800000000000000266e-01 -4.754997510349919243e-01
7.900000000000000355e-01 -4.491189444752649029e-01
8.000000000000000444e-01 -4.081043965635056670e-01
8.100000000000000533e-01 -3.545323904605011678e-01
8.200000000000000622e-01 -2.894711718508896636e-01
8.300000000000000711e-01 -2.163661888617951501e-01
8.399999999999999689e-01 -1.369392080184819449e-01
8.499999999999999778e-01 -5.487235516705465249e-02
8.599999999999999867e-01 2.702158881523273465e-02
8.699999999999999956e-01 1.058478396773219338e-01
8.800000000000000044e-01 1.782421725086734410e-01
8.900000000000000133e-01 2.420726280607159719e-01
9.000000000000000222e-01 2.946030432272119803e-01
9.100000000000000311e-01 3.341018357921330395e-01
9.200000000000000400e-01 3.594941930848291056e-01
9.300000000000000488e-01 3.692284608183322714e-01
9.400000000000000577e-01 3.644182992402524301e-01
9.500000000000000666e-01 3.437137411562445899e-01
9.599999999999999645e-01 3.103030423740510968e-01
9.699999999999999734e-01 2.633243923887039761e-01
9.799999999999999822e-01 2.070311728558695274e-01
9.899999999999999911e-01 1.423355094066414972e-01
1.000000000000000000e+00 7.290450541672348350e-02
1.010000000000000009e+00 1.156623171833688624e-03
1.020000000000000018e+00 -6.974385443973914189e-02
1.030000000000000027e+00 -1.370316783576377706e-01
1.040000000000000036e+00 -1.977745127102986389e-01
1.050000000000000044e+00 -2.500765826164513261e-01
1.060000000000000053e+00 -2.909999680862879190e-01
1.070000000000000062e+00 -3.204589457824122412e-01
1.080000000000000071e+00 -3.354475348962020487e-01
1.090000000000000080e+00 -3.378957229566313947e-01
1.100000000000000089e+00 -3.255670391417457843e-01
1.110000000000000098e+00 -3.013739994435415959e-01
1.120000000000000107e+00 -2.650211068692972516e-01
1.130000000000000115e+00 -2.193511649907806949e-01
1.140000000000000124e+00 -1.659343321843129160e-01
1.150000000000000133e+00 -1.075381897152011268e-01
1.159999999999999920e+00 -4.673690064522087462e-02
1.169999999999999929e+00 1.359486262319872102e-02
1.179999999999999938e+00 7.102575337957069135e-02
1.189999999999999947e+00 1.223390995746975046e-01
1.199999999999999956e+00 1.663731497381145952e-01
1.209999999999999964e+00 1.994340645543761503e-01
1.219999999999999973e+00 2.220258712872272833e-01
1.229999999999999982e+00 2.312990877100593590e-01
1.239999999999999991e+00 2.283981148442897624e-01
1.250000000000000000e+00 2.122676920284362057e-01
1.260000000000000009e+00 1.843284014360823675e-01
1.270000000000000018e+00 1.454573826372559664e-01
1.280000000000000027e+00 9.728539667960087178e-02
1.290000000000000036e+00 4.214189362328438215e-02
1.300000000000000044e+00 -1.798470447347018039e-02
1.310000000000000053e+00 -8.025141519457112960e-02
1.320000000000000062e+00 -1.420466415051189479e-01
1.330000000000000071e+00 -2.010803691313191310e-01
1.340000000000000080e+00 -2.541251014452433621e-01
1.350000000000000089e+00 -2.999423616955171346e-01
1.360000000000000098e+00 -3.356357589481652193e-01
1.370000000000000107e+00 -3.606176310946917485e-01
1.380000000000000115e+00 -3.732960365234269107e-01
1.390000000000000124e+00 -3.734481755404073788e-01
1.400000000000000133e+00 -3.612928656919774384e-01
1.409999999999999920e+00 -3.368731711343793678e-01
1.419999999999999929e+00 -3.021529232685890576e-01
1.429999999999999938e+00 -2.575592594353199871e-01
1.439999999999999947e+00 -2.061876817124561057e-01
1.449999999999999956e+00 -1.491376013572767445e-01
1.459999999999999964e+00 -8.961873337110785875e-02
1.469999999999999973e+00 -2.978800661969042279e-02
1.479999999999999982e+00 2.789477035759148002e-02
1.489999999999999991e+00 8.089622364214114902e-02
1.500000000000000000e+00 1.272957624103232543e-01
1.510000000000000009e+00 1.652135404402998442e-01
1.520000000000000018e+00 1.930177781625894706e-01
1.530000000000000027e+00 2.102613348289484319e-01
1.540000000000000036e+00 2.154718485436808995e-01
1.550000000000000044e+00 2.099564269564538066e-01
1.560000000000000053e+00 1.924646015791881826e-01
1.570000000000000062e+00 1.657110041398734135e-01
1.580000000000000071e+00 1.293179927476033331e-01
1.590000000000000080e+00 8.630566161011141157e-02
1.600000000000000089e+00 3.770303861750666508e-02
1.610000000000000098e+00 -1.389904516377217340e-02
1.620000000000000107e+00 -6.657778857629546854e-02
1.630000000000000115e+00 -1.180580823594115369e-01
1.640000000000000124e+00 -1.664479641014436351e-01
1.650000000000000133e+00 -2.096102254109933616e-01
1.660000000000000142e+00 -2.465411415318291277e-01
1.669999999999999929e+00 -2.751189272863518442e-01
1.679999999999999938e+00 -2.957895882263417708e-01
1.689999999999999947e+00 -3.064716618511313939e-01
1.699999999999999956e+00 -3.088973375326138915e-01
1.709999999999999964e+00 -3.020724119253356821e-01
1.719999999999999973e+00 -2.879115455855870698e-01
1.729999999999999982e+00 -2.668481248629849256e-01
1.739999999999999991e+00 -2.407586055423054650e-01
1.750000000000000000e+00 -2.111032840888366069e-01
1.760000000000000009e+00 -1.797480598316617550e-01
1.770000000000000018e+00 -1.484590163541765484e-01
1.780000000000000027e+00 -1.192094098961216375e-01
1.790000000000000036e+00 -9.326882449383967766e-02
1.800000000000000044e+00 -7.282211810233503446e-02
1.810000000000000053e+00 -5.808864305973002878e-02
1.820000000000000062e+00 -5.114874969395436649e-02
1.830000000000000071e+00 -5.133922145065454579e-02
1.840000000000000080e+00 -5.980517484466010836e-02
1.850000000000000089e+00 -7.558996084676082583e-02
1.860000000000000098e+00 -9.857612040235290418e-02
1.870000000000000107e+00 -1.276427295962317687e-01
1.880000000000000115e+00 -1.616066880916860737e-01
1.890000000000000124e+00 -1.991631775584350450e-01
1.900000000000000133e+00 -2.386036963445553882e-01
1.910000000000000142e+00 -2.783192970410944267e-01
1.919999999999999929e+00 -3.168005867463601355e-01
1.929999999999999938e+00 -3.519982353257798957e-01
1.939999999999999947e+00 -3.831292905951786953e-01
1.949999999999999956e+00 -4.081824774750401619e-01
1.959999999999999964e+00 -4.269250386610319303e-01
1.969999999999999973e+00 -4.380489611077504342e-01
1.979999999999999982e+00 -4.416179615568304739e-01
1.989999999999999991e+00 -4.374167544325495705e-01
2.000000000000000000e+00 -4.256792753067028534e-01
2.010000000000000231e+00 -4.072976951609751928e-01
2.020000000000000018e+00 -3.826748106329546095e-01
2.030000000000000249e+00 -3.534750794483301761e-01
2.040000000000000036e+00 -3.203700071049448983e-01
2.049999999999999822e+00 -2.852037539053805526e-01
2.060000000000000053e+00 -2.490898122406215442e-01
2.069999999999999840e+00 -2.134636178468260204e-01
2.080000000000000071e+00 -1.796600553051107552e-01
2.089999999999999858e+00 -1.486077064505393064e-01
2.100000000000000089e+00 -1.213271075891635825e-01
2.109999999999999876e+00 -9.838023422876400470e-02
2.120000000000000107e+00 -8.004823210153115542e-02
2.129999999999999893e+00 -6.660577159779328127e-02
2.140000000000000124e+00 -5.746804608611851689e-02
2.149999999999999911e+00 -5.260362855753534378e-02
2.160000000000000142e+00 -5.076230523324513910e-02
2.169999999999999929e+00 -5.149884290093229705e-02
2.180000000000000160e+00 -5.336923284593683703e-02
2.189999999999999947e+00 -5.535568917525268001e-02
2.200000000000000178e+00 -5.628180251807084200e-02
2.209999999999999964e+00 -5.490572191138766434e-02
2.220000000000000195e+00 -5.029569601440298660e-02
2.229999999999999982e+00 -4.153288197994912945e-02
2.240000000000000213e+00 -2.786789228243240907e-02
2.250000000000000000e+00 -9.132829544044075709e-03
2.260000000000000231e+00 1.524257051035207700e-02
2.270000000000000018e+00 4.450990167374535567e-02
2.280000000000000249e+00 7.896030097158465710e-02
2.290000000000000036e+00 1.171334715665351273e-01
2.300000000000000266e+00 1.587085993408575146e-01
2.310000000000000053e+00 2.020583482747467241e-01
2.319999999999999840e+00 2.460916071889916457e-01
2.330000000000000071e+00 2.893297636550945517e-01
2.339999999999999858e+00 3.303190435292154281e-01
2.350000000000000089e+00 3.676431637919808093e-01
2.359999999999999876e+00 4.001107193422391850e-01
2.370000000000000107e+00 4.262607109577251085e-01
2.379999999999999893e+00 4.457290368210916065e-01
2.390000000000000124e+00 4.569609427888704500e-01
2.399999999999999911e+00 4.607640381550399122e-01
2.410000000000000142e+00 4.555587961750221515e-01
2.419999999999999929e+00 4.431111427087525145e-01
2.430000000000000160e+00 4.227156305766956446e-01
2.439999999999999947e+00 3.961582052053105873e-01
2.450000000000000178e+00 3.638894116495868247e-01
2.459999999999999964e+00 3.275617369299209103e-01
2.470000000000000195e+00 2.884325481177063555e-01
2.479999999999999982e+00 2.480898756512164294e-01
2.490000000000000213e+00 2.080000502747562652e-01
2.500000000000000000e+00 1.698132535568513124e-01
2.510000000000000231e+00 1.345553650665692880e-01
2.520000000000000018e+00 1.040420419824068382e-01
2.530000000000000249e+00 7.841294316241367857e-02
2.540000000000000036e+00 5.941399648163220304e-02
2.550000000000000266e+00 4.644293058980723810e-02
2.560000000000000053e+00 4.047425896673257500e-02
2.569999999999999840e+00 4.068312878615695100e-02
2.580000000000000071e+00 4.699628100461228364e-02
2.589999999999999858e+00 5.847442131832897988e-02
2.600000000000000089e+00 7.415743826714749076e-02
2.609999999999999876e+00 9.297719000029582015e-02
2.620000000000000107e+00 1.135277885306428675e-01
2.629999999999999893e+00 1.345165942169193884e-01
2.640000000000000124e+00 1.546843373718354009e-01
2.649999999999999911e+00 1.724079854110177057e-01
2.660000000000000142e+00 1.870196291833282065e-01
2.669999999999999929e+00 1.969274561201204976e-01
2.680000000000000160e+00 2.019500531985708724e-01
2.689999999999999947e+00 2.010708771717970300e-01
2.700000000000000178e+00 1.943902434358820708e-01
2.709999999999999964e+00 1.817879714309367511e-01
2.720000000000000195e+00 1.635577578399966536e-01
2.729999999999999982e+00 1.404773922992191282e-01
2.740000000000000213e+00 1.130546834770890657e-01
2.750000000000000000e+00 8.266568011353352119e-02
2.760000000000000231e+00 5.014212817130023203e-02
2.770000000000000018e+00 1.694888752620295896e-02
2.780000000000000249e+00 -1.563624294537756948e-02
2.790000000000000036e+00 -4.650535599169042938e-02
2.800000000000000266e+00 -7.422000238172103692e-02
2.810000000000000053e+00 -9.803164048416754262e-02
2.819999999999999840e+00 -1.168590370544677348e-01
2.830000000000000071e+00 -1.301764654024932799e-01
2.839999999999999858e+00 -1.376681456638494394e-01
2.850000000000000089e+00 -1.389531631047043747e-01
2.859999999999999876e+00 -1.346305928677133945e-01
2.870000000000000107e+00 -1.244827517580312792e-01
2.879999999999999893e+00 -1.098772455648323876e-01
2.890000000000000124e+00 -9.087281753636464177e-02
2.899999999999999911e+00 -6.914462373968983944e-02
2.910000000000000142e+00 -4.537112963899488094e-02
2.919999999999999929e+00 -2.094586043910424966e-02
2.930000000000000160e+00 3.037120881905152128e-03
2.939999999999999947e+00 2.546214371503940574e-02
2.950000000000000178e+00 4.532039897433364634e-02
2.959999999999999964e+00 6.167861929178658498e-02
2.970000000000000195e+00 7.406369410743730841e-02
2.979999999999999982e+00 8.166392283687844145e-02
2.990000000000000213e+00 8.479704933601145411e-02
3.000000000000000000e+00 8.279349786077552786e-02
3.010000000000000231e+00 7.670077189353605163e-02
3.020000000000000018e+00 6.625465687142235993e-02
3.030000000000000249e+00 5.278401150289764587e-02
3.040000000000000036e+00 3.672446148737722182e-02
3.050000000000000266e+00 1.928893661320658232e-02
3.060000000000000053e+00 1.400836175454741803e-03
3.070000000000000284e+00 -1.582177527150017624e-02
3.080000000000000071e+00 -3.142237135781455332e-02
3.089999999999999858e+00 -4.431538997608819308e-02
3.100000000000000089e+00 -5.396400671899234669e-02
3.109999999999999876e+00 -5.927355221192113360e-02
3.120000000000000107e+00 -6.044533897025224783e-02
3.129999999999999893e+00 -5.640668153524708295e-02
3.140000000000000124e+00 -4.805033473187642762e-02
3.149999999999999911e+00 -3.485700394466673818e-02
3.160000000000000142e+00 -1.787170874999572528e-02
3.169999999999999929e+00 2.652778371319296224e-03
3.180000000000000160e+00 2.566661736552721534e-02
3.189999999999999947e+00 5.034466513302896656e-02
3.200000000000000178e+00 7.561339946957085223e-02
3.209999999999999964e+00 1.004783245583091428e-01
3.220000000000000195e+00 1.237748706832855483e-01
3.229999999999999982e+00 1.448014557814857328e-01
3.240000000000000213e+00 1.622441545920010886e-01
3.250000000000000000e+00 1.760290583725160618e-01
3.260000000000000231e+00 1.848617862428656444e-01
3.270000000000000018e+00 1.892102924877326064e-01
3.280000000000000249e+00 1.883359131029734013e-01
3.290000000000000036e+00 1.828600131027120768e-01
3.300000000000000266e+00 1.728172120853023741e-01
3.310000000000000053e+00 1.589074686652615365e-01
3.320000000000000284e+00 1.418273195366872297e-01
3.330000000000000071e+00 1.223663486836549935e-01
3.339999999999999858e+00 1.015609871686334459e-01
3.350000000000000089e+00 8.035892098366365088e-02
3.359999999999999876e+00 5.969855286829942737e-02
3.370000000000000107e+00 4.076013563356344072e-02
3.379999999999999893e+00 2.404679177827897738e-02
3.390000000000000124e+00 1.071870394235364260e-02
3.399999999999999911e+00 9.017148454019202012e-04
3.410000000000000142e+00 -4.667675137447608452e-03
3.419999999999999929e+00 -6.085781468282190111e-03
3.430000000000000160e+00 -3.277320723494929998e-03
3.439999999999999947e+00 3.504275013993678883e-03
3.450000000000000178e+00 1.367891903710720392e-02
3.459999999999999964e+00 2.682208935321387516e-02
3.470000000000000195e+00 4.193084750036892017e-02
3.479999999999999982e+00 5.833306515278124244e-02
3.490000000000000213e+00 7.498740977218376624e-02
3.500000000000000000e+00 9.090190979355927681e-02
3.510000000000000231e+00 1.053196719667516684e-01
3.520000000000000018e+00 1.171685032204926591e-01
3.530000000000000249e+00 1.259675851056314411e-01
3.540000000000000036e+00 1.309556158445688845e-01
3.550000000000000266e+00 1.318348195919907817e-01
3.560000000000000053e+00 1.284448039518432116e-01
3.570000000000000284e+00 1.206264708980874234e-01
3.580000000000000071e+00 1.089021006968172722e-01
3.589999999999999858e+00 9.328194473554539401e-02
3.600000000000000089e+00 7.482063917662487573e-02
3.609999999999999876e+00 5.379832049600240251e-02
3.620000000000000107e+00 3.143981926745255395e-02
3.629999999999999893e+00 8.481276650260495889e-03
3.640000000000000124e+00 -1.406899839680837531e-02
3.649999999999999911e+00 -3.523308809608838299e-02
3.660000000000000142e+00 -5.420070545144255875e-02
3.669999999999999929e+00 -7.016340959719241654e-02
3.680000000000000160e+00 -8.243098776792626148e-02
3.689999999999999947e+00 -9.071609607803450548e-02
3.700000000000000178e+00 -9.440783406875301320e-02
3.709999999999999964e+00 -9.391853560335357287e-02
3.720000000000000195e+00 -8.874850191971508928e-02
3.729999999999999982e+00 -7.992317949765301299e-02
3.740000000000000213e+00 -6.728200028577412117e-02
3.750000000000000000e+00 -5.206006422765133146e-02
3.760000000000000231e+00 -3.469561423178456339e-02
3.770000000000000018e+00 -1.628046425477918877e-02
3.780000000000000249e+00 2.345267457891150181e-03
3.790000000000000036e+00 2.019741435241525010e-02
3.800000000000000266e+00 3.643769235961068914e-02
3.810000000000000053e+00 5.012406270755710019e-02
3.820000000000000284e+00 6.081016201521508013e-02
3.830000000000000071e+00 6.755383067162627764e-02
3.839999999999999858e+00 7.056605766617536635e-02
3.850000000000000089e+00 6.892877682995837696e-02
3.859999999999999876e+00 6.345888640435486117e-02
