# [DEFAULT]
# # input and output specifications
# dataformat = QA
# outputtype = gr
# 
# # PDF calculation setup
# mode = xray
# wavelength = 
# composition = Cl4.0Cr1.0Na1.0
# bgscale = 1.0
# rpoly = 0.9
# qmaxinst = 28
# qmin = 0.0
# qmax = 22
# rmin = 0.0
# rmax = 30.0
# rstep = 0.01
# 
# # End of config --------------------------------------------------------------
# 
# #### start data
# #S 1
# #L r(Å)  G(Å$^$)
# 
0.000000000000000000e+00 0.000000000000000000e+00
1.000000000000000021e-02 -3.279536219985264810e-03
2.000000000000000042e-02 -6.652098388865941569e-03
2.999999999999999889e-02 -1.021897004357914460e-02
4.000000000000000083e-02 -1.400789240937444502e-02
5.000000000000000278e-02 -1.804469852052710543e-02
5.999999999999999778e-02 -2.226719339777155637e-02
7.000000000000000666e-02 -2.657710403842587776e-02
8.000000000000000167e-02 -3.079904968134593649e-02
8.999999999999999667e-02 -3.473712280251668727e-02
1.000000000000000056e-01 -3.807789966124662528e-02
1.100000000000000006e-01 -4.063287140032376815e-02
1.199999999999999956e-01 -4.193408889846372140e-02
1.300000000000000044e-01 -4.192425582687496488e-02
1.400000000000000133e-01 -4.008161580427221232e-02
1.499999999999999944e-01 -3.649014727077872638e-02
1.600000000000000033e-01 -3.080887874236528517e-02
1.700000000000000122e-01 -2.320233077212119008e-02
1.799999999999999933e-01 -1.366430078466843515e-02
1.900000000000000022e-01 -2.463890899466775197e-03
2.000000000000000111e-01 1.004836324742801670e-02
2.099999999999999922e-01 2.343951683017720528e-02
2.200000000000000011e-01 3.712445356635123150e-02
2.300000000000000100e-01 5.041821312048731796e-02
2.399999999999999911e-01 6.275647225868447032e-02
2.500000000000000000e-01 7.311352118802860733e-02
2.600000000000000089e-01 8.116749495248647139e-02
2.700000000000000178e-01 8.583579530458151918e-02
2.800000000000000266e-01 8.695138891516798751e-02
2.899999999999999800e-01 8.375351889322808774e-02
2.999999999999999889e-01 7.618925488780231570e-02
3.099999999999999978e-01 6.410685976729170454e-02
3.200000000000000067e-01 4.758468814099799798e-02
3.300000000000000155e-01 2.718600304744046847e-02
3.400000000000000244e-01 3.222645041354628599e-03
3.500000000000000333e-01 -2.316657499176495022e-02
3.599999999999999867e-01 -5.124912101994791302e-02
3.699999999999999956e-01 -7.968489681617507703e-02
3.800000000000000044e-01 -1.071298939146056173e-01
3.900000000000000133e-01 -1.324147675474301455e-01
4.000000000000000222e-01 -1.538542680244567307e-01
4.100000000000000311e-01 -1.704345546188186511e-01
4.199999999999999845e-01 -1.807093314841533849e-01
4.299999999999999933e-01 -1.837109475832270911e-01
4.400000000000000022e-01 -1.788116949313985626e-01
4.500000000000000111e-01 -1.650499258182706874e-01
4.600000000000000200e-01 -1.429977078485643316e-01
4.700000000000000289e-01 -1.117965553940292733e-01
4.799999999999999822e-01 -7.326275247803888668e-02
4.899999999999999911e-01 -2.690947860166548536e-02
5.000000000000000000e-01 2.471171133861197952e-02
5.100000000000000089e-01 8.085071885997599517e-02
5.200000000000000178e-01 1.391439309116520306e-01
5.300000000000000266e-01 1.977394079231126200e-01
5.400000000000000355e-01 2.543510675687176148e-01
5.500000000000000444e-01 3.067987421590617214e-01
5.600000000000000533e-01 3.526583618383333230e-01
5.700000000000000622e-01 3.903518417116938477e-01
5.799999999999999600e-01 4.171225907036879010e-01
5.899999999999999689e-01 4.328440586456209216e-01
5.999999999999999778e-01 4.343719366485643829e-01
6.099999999999999867e-01 4.233351628835433367e-01
6.199999999999999956e-01 3.970753026173767242e-01
6.300000000000000044e-01 3.581159116505114870e-01
6.400000000000000133e-01 3.055933544926208167e-01
6.500000000000000222e-01 2.420064488412162762e-01
6.600000000000000311e-01 1.684778882158918245e-01
6.700000000000000400e-01 8.752976741352687384e-02
6.800000000000000488e-01 1.665151363347709690e-03
6.900000000000000577e-01 -8.632040012562877673e-02
7.000000000000000666e-01 -1.735761049992265159e-01
7.099999999999999645e-01 -2.566820457410343148e-01
7.199999999999999734e-01 -3.336660643184773956e-01
7.299999999999999822e-01 -4.001780859471794627e-01
7.399999999999999911e-01 -4.557831772587981334e-01
7.500000000000000000e-01 -4.965009589773529131e-01
7.600000000000000089e-01 -5.225734308587214327e-01
7.700000000000000178e-01 -5.316491628814853376e-01
7.800000000000000266e-01 -5.242503727350026344e-01
7.900000000000000355e-01 -5.002728513082670414e-01
8.000000000000000444e-01 -4.603915927253565132e-01
8.100000000000000533e-01 -4.067158030616312425e-01
8.200000000000000622e-01 -3.402183382669219935e-01
8.300000000000000711e-01 -2.645454225561984507e-01
8.399999999999999689e-01 -1.813390484181139073e-01
8.499999999999999778e-01 -9.459638935094256962e-02
8.599999999999999867e-01 -7.137884093398876029e-03
8.699999999999999956e-01 7.782590611815291826e-02
8.800000000000000044e-01 1.567939934261077806e-01
8.900000000000000133e-01 2.273732853594893077e-01
9.000000000000000222e-01 2.866200454705152834e-01
9.100000000000000311e-01 3.325741830429556622e-01
9.200000000000000400e-01 3.639735998069382750e-01
9.300000000000000488e-01 3.790458430503901299e-01
9.400000000000000577e-01 3.788186518757125087e-01
9.500000000000000666e-01 3.617121147872853770e-01
9.599999999999999645e-01 3.309820120398512810e-01
9.699999999999999734e-01 2.855268835580078157e-01
9.799999999999999822e-01 2.297977212852635454e-01
9.899999999999999911e-01 1.645786618470281848e-01
1.000000000000000000e+00 9.373870473325517094e-02
1.010000000000000009e+00 1.971975122450207035e-02
1.020000000000000018e+00 -5.412489523006965703e-02
1.030000000000000027e+00 -1.248907493658537454e-01
1.040000000000000036e+00 -1.894634176520953173e-01
1.050000000000000044e+00 -2.457588775700844108e-01
1.060000000000000053e+00 -2.906475192016616527e-01
1.070000000000000062e+00 -3.238847953867222129e-01
1.080000000000000071e+00 -3.422458310896261402e-01
1.090000000000000080e+00 -3.475915321703178518e-01
1.100000000000000089e+00 -3.374606418857103440e-01
1.110000000000000098e+00 -3.147808683350754588e-01
1.120000000000000107e+00 -2.791035883713925414e-01
1.130000000000000115e+00 -2.333188759992700367e-01
1.140000000000000124e+00 -1.789597961459112874e-01
1.150000000000000133e+00 -1.188559835666903874e-01
1.159999999999999920e+00 -5.566048163544714406e-02
1.169999999999999929e+00 7.677246442247058836e-03
1.179999999999999938e+00 6.856554302388109812e-02
1.189999999999999947e+00 1.236894863102055153e-01
1.199999999999999956e+00 1.717043657241289767e-01
1.209999999999999964e+00 2.087775201586841989e-01
1.219999999999999973e+00 2.352664334641817734e-01
1.229999999999999982e+00 2.481528816945989258e-01
1.239999999999999991e+00 2.484882767486573385e-01
1.250000000000000000e+00 2.350721478663215791e-01
1.260000000000000009e+00 2.092644822581449515e-01
1.270000000000000018e+00 1.718715132874430451e-01
1.280000000000000027e+00 1.244799539631371993e-01
1.290000000000000036e+00 6.944755580173592180e-02
1.300000000000000044e+00 8.729965192089274295e-03
1.310000000000000053e+00 -5.470786525224244357e-02
1.320000000000000062e+00 -1.182694204086184864e-01
1.330000000000000071e+00 -1.794877110758052174e-01
1.340000000000000080e+00 -2.351011030199127161e-01
1.350000000000000089e+00 -2.837027169235048496e-01
1.360000000000000098e+00 -3.223028845726952363e-01
1.370000000000000107e+00 -3.501815293702182919e-01
1.380000000000000115e+00 -3.656337000248676694e-01
1.390000000000000124e+00 -3.683280841020981633e-01
1.400000000000000133e+00 -3.584000833937558417e-01
1.409999999999999920e+00 -3.357960024864694581e-01
1.419999999999999929e+00 -3.024620296666955532e-01
1.429999999999999938e+00 -2.587337809070066053e-01
1.439999999999999947e+00 -2.077696736595178173e-01
1.449999999999999956e+00 -1.505851155219103676e-01
1.459999999999999964e+00 -9.051030050917362180e-02
1.469999999999999973e+00 -2.967766406289995204e-02
1.479999999999999982e+00 2.933840010032665729e-02
1.489999999999999991e+00 8.396283231444866269e-02
1.500000000000000000e+00 1.321735174316099326e-01
1.510000000000000009e+00 1.720114772454962304e-01
1.520000000000000018e+00 2.017521393124990792e-01
1.530000000000000027e+00 2.208692512682878251e-01
1.540000000000000036e+00 2.277989528230301708e-01
1.550000000000000044e+00 2.238039246726276632e-01
1.560000000000000053e+00 2.075377947882342811e-01
1.570000000000000062e+00 1.817234769456722299e-01
1.580000000000000071e+00 1.458979225995730988e-01
1.590000000000000080e+00 1.031257788893423927e-01
1.600000000000000089e+00 5.439499484814368235e-02
1.610000000000000098e+00 2.347307584378027605e-03
1.620000000000000107e+00 -5.108321374336927817e-02
1.630000000000000115e+00 -1.035703111722064140e-01
1.640000000000000124e+00 -1.531714697683360937e-01
1.650000000000000133e+00 -1.976977717666015544e-01
1.660000000000000142e+00 -2.360790091703108828e-01
1.669999999999999929e+00 -2.661368890011320820e-01
1.679999999999999938e+00 -2.882615392663701037e-01
1.689999999999999947e+00 -3.003053425934629761e-01
1.699999999999999956e+00 -3.039723439764758783e-01
1.709999999999999964e+00 -2.982064637306202637e-01
1.719999999999999973e+00 -2.849148306799633712e-01
1.729999999999999982e+00 -2.644922934938374048e-01
1.739999999999999991e+00 -2.388179500028728142e-01
1.750000000000000000e+00 -2.093464980364336536e-01
1.760000000000000009e+00 -1.779505791489383593e-01
1.770000000000000018e+00 -1.464219780815076144e-01
1.780000000000000027e+00 -1.167428818545976077e-01
1.790000000000000036e+00 -9.022940682882429897e-02
1.800000000000000044e+00 -6.907894912632328577e-02
1.810000000000000053e+00 -5.356215789663276022e-02
1.820000000000000062e+00 -4.578095266076322861e-02
1.830000000000000071e+00 -4.511230464841999022e-02
1.840000000000000080e+00 -5.272982037358535379e-02
1.850000000000000089e+00 -6.770336601967862078e-02
1.860000000000000098e+00 -8.994052938485097570e-02
1.870000000000000107e+00 -1.183391250612259443e-01
1.880000000000000115e+00 -1.517292561558391539e-01
1.890000000000000124e+00 -1.888225149749566401e-01
1.900000000000000133e+00 -2.279085765655542439e-01
1.910000000000000142e+00 -2.673969409052814328e-01
1.919999999999999929e+00 -3.057623782882089580e-01
1.929999999999999938e+00 -3.409793985557746931e-01
1.939999999999999947e+00 -3.722421304433433664e-01
1.949999999999999956e+00 -3.975595571343694123e-01
1.959999999999999964e+00 -4.166838103879695887e-01
1.969999999999999973e+00 -4.283204046259859732e-01
1.979999999999999982e+00 -4.325283813251141196e-01
1.989999999999999991e+00 -4.290990764244851374e-01
2.000000000000000000e+00 -4.182723068583396042e-01
2.010000000000000231e+00 -4.009378948411141397e-01
2.020000000000000018e+00 -3.775139281792194157e-01
2.030000000000000249e+00 -3.496500250316406655e-01
2.040000000000000036e+00 -3.180394895124873944e-01
2.049999999999999822e+00 -2.844981881163828330e-01
2.060000000000000053e+00 -2.501568316096305922e-01
2.069999999999999840e+00 -2.164167462449740897e-01
2.080000000000000071e+00 -1.846107741430963178e-01
2.089999999999999858e+00 -1.556343441689443940e-01
2.100000000000000089e+00 -1.304851781272833577e-01
2.109999999999999876e+00 -1.096888812909734695e-01
2.120000000000000107e+00 -9.349104225533909351e-02
2.129999999999999893e+00 -8.212111564627641580e-02
2.140000000000000124e+00 -7.496002139878141235e-02
2.149999999999999911e+00 -7.191634172875473185e-02
2.160000000000000142e+00 -7.172438258318970805e-02
2.169999999999999929e+00 -7.385988203880330949e-02
2.180000000000000160e+00 -7.688991039860935961e-02
2.189999999999999947e+00 -7.972549040764044526e-02
2.200000000000000178e+00 -8.120879728955240906e-02
2.209999999999999964e+00 -8.005873579618699720e-02
2.220000000000000195e+00 -7.536330255583138793e-02
2.229999999999999982e+00 -6.620668168379778562e-02
2.240000000000000213e+00 -5.186065447791567140e-02
2.250000000000000000e+00 -3.220078166996613589e-02
2.260000000000000231e+00 -6.684254070051153830e-03
2.270000000000000018e+00 2.387050460482622802e-02
2.280000000000000249e+00 5.971240544478595424e-02
2.290000000000000036e+00 9.930776062860334485e-02
2.300000000000000266e+00 1.422704432450922207e-01
2.310000000000000053e+00 1.869166838787543750e-01
2.319999999999999840e+00 2.320803566226627979e-01
2.330000000000000071e+00 2.762425231482948940e-01
2.339999999999999858e+00 3.178911715843073527e-01
2.350000000000000089e+00 3.555793556513458520e-01
2.359999999999999876e+00 3.880969858067950251e-01
2.370000000000000107e+00 4.139595027402944716e-01
2.379999999999999893e+00 4.328343735898846356e-01
2.390000000000000124e+00 4.431539975111534191e-01
2.399999999999999911e+00 4.458026319079932964e-01
2.410000000000000142e+00 4.392088309745713071e-01
2.419999999999999929e+00 4.252364642116342464e-01
2.430000000000000160e+00 4.032317591517593502e-01
2.439999999999999947e+00 3.750688197553932457e-01
2.450000000000000178e+00 3.412817138242000836e-01
2.459999999999999964e+00 3.036044057640482907e-01
2.470000000000000195e+00 2.633768815240284944e-01
2.479999999999999982e+00 2.222702948971659875e-01
2.490000000000000213e+00 1.817981173231222325e-01
2.500000000000000000e+00 1.437017940505236624e-01
2.510000000000000231e+00 1.089921853265813506e-01
2.520000000000000018e+00 7.958499181850292592e-02
2.530000000000000249e+00 5.553796154958431930e-02
2.540000000000000036e+00 3.867792120242804360e-02
2.550000000000000266e+00 2.828957758795637781e-02
2.560000000000000053e+00 2.536301331953163402e-02
2.569999999999999840e+00 2.896949667998606134e-02
2.580000000000000071e+00 3.898563166099008881e-02
2.589999999999999858e+00 5.437524765994153353e-02
2.600000000000000089e+00 7.409010396591403369e-02
2.609999999999999876e+00 9.696389017051625092e-02
2.620000000000000107e+00 1.215022077794380567e-01
2.629999999999999893e+00 1.463025652437190960e-01
2.640000000000000124e+00 1.700551694300621863e-01
2.649999999999999911e+00 1.910077053301567906e-01
2.660000000000000142e+00 2.084963576928715034e-01
2.669999999999999929e+00 2.208189458334191002e-01
2.680000000000000160e+00 2.278222677264935825e-01
2.689999999999999947e+00 2.284338291546736677e-01
2.700000000000000178e+00 2.227891588196082573e-01
2.709999999999999964e+00 2.107772912797312714e-01
2.720000000000000195e+00 1.927288188460278551e-01
2.729999999999999982e+00 1.694862506506651101e-01
2.740000000000000213e+00 1.415977061840950069e-01
2.750000000000000000e+00 1.105344388091136359e-01
2.760000000000000231e+00 7.717811162932840252e-02
2.770000000000000018e+00 4.308605699860670879e-02
2.780000000000000249e+00 9.602138457124029247e-03
2.790000000000000036e+00 -2.210250502567705222e-02
2.800000000000000266e+00 -5.052225041895663793e-02
2.810000000000000053e+00 -7.487456159432059888e-02
2.819999999999999840e+00 -9.403606206313963600e-02
2.830000000000000071e+00 -1.074680285036637983e-01
2.839999999999999858e+00 -1.148541702813200976e-01
2.850000000000000089e+00 -1.158180108044673806e-01
2.859999999999999876e+00 -1.109996176957570024e-01
2.870000000000000107e+00 -1.002053772513978730e-01
2.879999999999999893e+00 -8.486891658926307147e-02
2.890000000000000124e+00 -6.509931784445090186e-02
2.899999999999999911e+00 -4.263750471390699570e-02
2.910000000000000142e+00 -1.823752739341753110e-02
2.919999999999999929e+00 6.656417618945908825e-03
2.930000000000000160e+00 3.087359658484344418e-02
2.939999999999999947e+00 5.325821114104325321e-02
2.950000000000000178e+00 7.275304370418539390e-02
2.959999999999999964e+00 8.839065624909574204e-02
2.970000000000000195e+00 9.969840451127583159e-02
2.979999999999999982e+00 1.058358753198449381e-01
2.990000000000000213e+00 1.071757493642067904e-01
3.000000000000000000e+00 1.030307604460358878e-01
3.010000000000000231e+00 9.454333099771460025e-02
3.020000000000000018e+00 8.146207143873473999e-02
3.030000000000000249e+00 6.521697899749466509e-02
3.040000000000000036e+00 4.629963544464362618e-02
3.050000000000000266e+00 2.600951086752027047e-02
3.060000000000000053e+00 5.347572529967552571e-03
3.070000000000000284e+00 -1.449013100931925355e-02
3.080000000000000071e+00 -3.248171847402672729e-02
3.089999999999999858e+00 -4.746527288259176636e-02
3.100000000000000089e+00 -5.888067914939534853e-02
3.109999999999999876e+00 -6.555490067055887160e-02
3.120000000000000107e+00 -6.772589907461955272e-02
3.129999999999999893e+00 -6.424335353187478337e-02
3.140000000000000124e+00 -5.608648181484794659e-02
3.149999999999999911e+00 -4.270182548364945263e-02
3.160000000000000142e+00 -2.522470609808355815e-02
3.169999999999999929e+00 -3.931978306299708723e-03
3.180000000000000160e+00 2.004191347118997393e-02
3.189999999999999947e+00 4.580691352524155630e-02
3.200000000000000178e+00 7.220709968548374991e-02
3.209999999999999964e+00 9.817291949972517529e-02
3.220000000000000195e+00 1.224529460529366898e-01
3.229999999999999982e+00 1.442939101616537989e-01
3.240000000000000213e+00 1.622849973036727955e-01
3.250000000000000000e+00 1.763474368368063705e-01
3.260000000000000231e+00 1.850914324296591695e-01
3.270000000000000018e+00 1.890195713814614431e-01
3.280000000000000249e+00 1.873381496282064407e-01
3.290000000000000036e+00 1.807137184289569765e-01
3.300000000000000266e+00 1.691822792938261766e-01
3.310000000000000053e+00 1.534943061527587194e-01
3.320000000000000284e+00 1.343967867636274294e-01
3.330000000000000071e+00 1.127367150792328437e-01
3.339999999999999858e+00 8.962759468149396336e-02
3.350000000000000089e+00 6.608783296051218281e-02
3.359999999999999876e+00 4.312807136349717380e-02
3.370000000000000107e+00 2.202028265373901297e-02
3.379999999999999893e+00 3.309969536744813805e-03
3.390000000000000124e+00 -1.174694770005483418e-02
3.399999999999999911e+00 -2.300776424454932523e-02
3.410000000000000142e+00 -2.966705263342708787e-02
3.419999999999999929e+00 -3.181709549992033786e-02
3.430000000000000160e+00 -2.936173187355523712e-02
3.439999999999999947e+00 -2.255683684546385889e-02
3.450000000000000178e+00 -1.201492209732720959e-02
3.459999999999999964e+00 1.830931100967869100e-03
3.470000000000000195e+00 1.790284089930227474e-02
3.479999999999999982e+00 3.550880767894998985e-02
3.490000000000000213e+00 5.351486118231957995e-02
3.500000000000000000e+00 7.088617791858602135e-02
3.510000000000000231e+00 8.678554425344632561e-02
3.520000000000000018e+00 1.000774112556840623e-01
3.530000000000000249e+00 1.102230864786453296e-01
3.540000000000000036e+00 1.164016795106944252e-01
3.550000000000000266e+00 1.182727357935971363e-01
3.560000000000000053e+00 1.156448790514841979e-01
3.570000000000000284e+00 1.083263277819581510e-01
3.580000000000000071e+00 9.685088492071668165e-02
3.589999999999999858e+00 8.120563386271514861e-02
3.600000000000000089e+00 6.249874762600440142e-02
3.609999999999999876e+00 4.100183972908264668e-02
3.620000000000000107e+00 1.801702761043202233e-02
3.629999999999999893e+00 -5.693488410759662416e-03
3.640000000000000124e+00 -2.904971226469219014e-02
3.649999999999999911e+00 -5.101821011886838869e-02
3.660000000000000142e+00 -7.072435289116064949e-02
3.669999999999999929e+00 -8.729847845173234477e-02
3.680000000000000160e+00 -9.998791714707025435e-02
3.689999999999999947e+00 -1.084646233522014724e-01
3.700000000000000178e+00 -1.120518346275434646e-01
3.709999999999999964e+00 -1.111623312287085552e-01
3.720000000000000195e+00 -1.052251692467518762e-01
3.729999999999999982e+00 -9.531330970271423286e-02
3.740000000000000213e+00 -8.120449517602441880e-02
3.750000000000000000e+00 -6.420645390078333348e-02
3.760000000000000231e+00 -4.473815989103707008e-02
3.770000000000000018e+00 -2.395829847260480538e-02
3.780000000000000249e+00 -2.732637733402518837e-03
3.790000000000000036e+00 1.789383588746436271e-02
3.800000000000000266e+00 3.702901046385381756e-02
3.810000000000000053e+00 5.367167565137889729e-02
3.820000000000000284e+00 6.731663409740844262e-02
3.830000000000000071e+00 7.695758913765353426e-02
3.839999999999999858e+00 8.276555171027778768e-02
3.850000000000000089e+00 8.374741529346595159e-02
3.859999999999999876e+00 8.071126979236462051e-02
