# [DEFAULT]
# # input and output specifications
# dataformat = QA
# outputtype = gr
# 
# # PDF calculation setup
# mode = xray
# wavelength = 
# composition = Cl4.0Cr1.0Na1.0
# bgscale = 1.0
# rpoly = 0.9
# qmaxinst = 28
# qmin = 0.0
# qmax = 22
# rmin = 0.0
# rmax = 30.0
# rstep = 0.01
# 
# # End of config --------------------------------------------------------------
# 
# #### start data
# #S 1
# #L r(Å)  G(Å$^$)
# 
0.000000000000000000e+00 0.000000000000000000e+00
1.000000000000000021e-02 -1.901949813575913237e-03
2.000000000000000042e-02 -3.967877546336475922e-03
2.999999999999999889e-02 -6.385535728956715645e-03
4.000000000000000083e-02 -9.227459991229574471e-03
5.000000000000000278e-02 -1.258979216416517694e-02
5.999999999999999778e-02 -1.643563059658990563e-02
7.000000000000000666e-02 -2.069259270285883981e-02
8.000000000000000167e-02 -2.519521843588395926e-02
8.999999999999999667e-02 -2.971786093054762726e-02
1.000000000000000056e-01 -3.394045271964197391e-02
1.100000000000000006e-01 -3.759850477348739700e-02
1.199999999999999956e-01 -4.019431320365848825e-02
1.300000000000000044e-01 -4.157649352670687859e-02
1.400000000000000133e-01 -4.115962553478320907e-02
1.499999999999999944e-01 -3.894775003672060198e-02
1.600000000000000033e-01 -3.451695774807769096e-02
1.700000000000000122e-01 -2.797223190912165314e-02
1.799999999999999933e-01 -1.923925018871884551e-02
1.900000000000000022e-01 -8.543107998808073880e-03
2.000000000000000111e-01 3.788825672569612855e-03
2.099999999999999922e-01 1.735414460588098617e-02
2.200000000000000011e-01 3.153246605153629811e-02
2.300000000000000100e-01 4.565226948533566975e-02
2.399999999999999911e-01 5.906354444525038772e-02
2.500000000000000000e-01 7.072756018825641922e-02
2.600000000000000089e-01 8.021685148732707327e-02
2.700000000000000178e-01 8.639017736264947844e-02
2.800000000000000266e-01 8.899173388340916868e-02
2.899999999999999800e-01 8.717839477184842478e-02
2.999999999999999889e-01 8.082386544730202349e-02
3.099999999999999978e-01 6.970972900491226310e-02
3.200000000000000067e-01 5.385373323847529592e-02
3.300000000000000155e-01 3.380132040682948952e-02
3.400000000000000244e-01 9.817863150281333842e-03
3.500000000000000333e-01 -1.691134629337024201e-02
3.599999999999999867e-01 -4.567744852988567250e-02
3.699999999999999956e-01 -7.504205402326559471e-02
3.800000000000000044e-01 -1.036357249944869496e-01
3.900000000000000133e-01 -1.301775638089338605e-01
4.000000000000000222e-01 -1.529007217990820677e-01
4.100000000000000311e-01 -1.706865673866505839e-01
4.199999999999999845e-01 -1.819843238725572521e-01
4.299999999999999933e-01 -1.857258357582375619e-01
4.400000000000000022e-01 -1.812049971558210015e-01
4.500000000000000111e-01 -1.673623497993630693e-01
4.600000000000000200e-01 -1.447610347252314134e-01
4.700000000000000289e-01 -1.124535780789266970e-01
4.799999999999999822e-01 -7.233924405840437555e-02
4.899999999999999911e-01 -2.387009439765246099e-02
5.000000000000000000e-01 3.024849931441710160e-02
5.100000000000000089e-01 8.923226747204153486e-02
5.200000000000000178e-01 1.505545628908240008e-01
5.300000000000000266e-01 2.122326542588912346e-01
5.400000000000000355e-01 2.718036267250819593e-01
5.500000000000000444e-01 3.269114632287926647e-01
5.600000000000000533e-01 3.749261363784239798e-01
5.700000000000000622e-01 4.141231959313514399e-01
5.799999999999999600e-01 4.414940260846839104e-01
5.899999999999999689e-01 4.568738735260476913e-01
5.999999999999999778e-01 4.568121739205399656e-01
6.099999999999999867e-01 4.430475632472830605e-01
6.199999999999999956e-01 4.126366468260405096e-01
6.300000000000000044e-01 3.682961638779759794e-01
6.400000000000000133e-01 3.090286133435349858e-01
6.500000000000000222e-01 2.375280408891994877e-01
6.600000000000000311e-01 1.549728824869867905e-01
6.700000000000000400e-01 6.408600026499734759e-02
6.800000000000000488e-01 -3.241836890363548884e-02
6.900000000000000577e-01 -1.315137481976775546e-01
7.000000000000000666e-01 -2.300636183701460780e-01
7.099999999999999645e-01 -3.243472898284056050e-01
7.199999999999999734e-01 -4.121444805426339730e-01
7.299999999999999822e-01 -4.886910622860786702e-01
7.399999999999999911e-01 -5.534195770326874042e-01
7.500000000000000000e-01 -6.019159257208059888e-01
7.600000000000000089e-01 -6.343492854337391407e-01
7.700000000000000178e-01 -6.480409295862160635e-01
7.800000000000000266e-01 -6.434537670358997374e-01
7.900000000000000355e-01 -6.203548386975494822e-01
8.000000000000000444e-01 -5.793464003750955493e-01
8.100000000000000533e-01 -5.226495979756682342e-01
8.200000000000000622e-01 -4.511490345409696068e-01
8.300000000000000711e-01 -3.688273391501128429e-01
8.399999999999999689e-01 -2.772470640300124800e-01
8.499999999999999778e-01 -1.808763700783360406e-01
8.599999999999999867e-01 -8.256479656008722245e-02
8.699999999999999956e-01 1.403195917083161978e-02
8.800000000000000044e-01 1.052229557014708883e-01
8.900000000000000133e-01 1.882649265646163528e-01
9.000000000000000222e-01 2.599439954559623067e-01
9.100000000000000311e-01 3.180083631262786703e-01
9.200000000000000400e-01 3.609618963481622256e-01
9.300000000000000488e-01 3.867612452589106464e-01
9.400000000000000577e-01 3.963326189510724129e-01
9.500000000000000666e-01 3.878199889638556663e-01
9.599999999999999645e-01 3.645666816929823417e-01
9.699999999999999734e-01 3.251840878529067003e-01
9.799999999999999822e-01 2.743645685335119877e-01
9.899999999999999911e-01 2.127350230533057995e-01
1.000000000000000000e+00 1.444029985816253636e-01
1.010000000000000009e+00 7.182623493040671270e-02
1.020000000000000018e+00 -1.429639576826310585e-03
1.030000000000000027e+00 -7.231400012818856027e-02
1.040000000000000036e+00 -1.375224098814050444e-01
1.050000000000000044e+00 -1.947676733630473167e-01
1.060000000000000053e+00 -2.407361347390833684e-01
1.070000000000000062e+00 -2.750043207953407620e-01
1.080000000000000071e+00 -2.941512057872532337e-01
1.090000000000000080e+00 -2.999443440615791046e-01
1.100000000000000089e+00 -2.897269801699750014e-01
1.110000000000000098e+00 -2.664197619779610227e-01
1.120000000000000107e+00 -2.294418952529654887e-01
1.130000000000000115e+00 -1.817156653654567744e-01
1.140000000000000124e+00 -1.247420745320458324e-01
1.150000000000000133e+00 -6.140148340939259597e-02
1.159999999999999920e+00 5.587411900046666130e-03
1.169999999999999929e+00 7.321207474065186127e-02
1.179999999999999938e+00 1.387493209601384503e-01
1.189999999999999947e+00 1.988029838162063412e-01
1.199999999999999956e+00 2.518810428356417219e-01
1.209999999999999964e+00 2.940391814247431124e-01
1.219999999999999973e+00 3.255192210996326052e-01
1.229999999999999982e+00 3.431694810607995305e-01
1.239999999999999991e+00 3.479687249173936681e-01
1.250000000000000000e+00 3.386013281676903963e-01
1.260000000000000009e+00 3.163776638862424995e-01
1.270000000000000018e+00 2.820436323146212065e-01
1.280000000000000027e+00 2.371425153737207470e-01
1.290000000000000036e+00 1.840439585302359737e-01
1.300000000000000044e+00 1.246563392552228894e-01
1.310000000000000053e+00 6.202648873245866779e-02
1.320000000000000062e+00 -1.302575233431281509e-03
1.330000000000000071e+00 -6.273652139185587062e-02
1.340000000000000080e+00 -1.190492791954715773e-01
1.350000000000000089e+00 -1.687112735927501772e-01
1.360000000000000098e+00 -2.087257810304968264e-01
1.370000000000000107e+00 -2.382846894254635195e-01
1.380000000000000115e+00 -2.556447831936028425e-01
1.390000000000000124e+00 -2.604137191830874776e-01
1.400000000000000133e+00 -2.526777795934235238e-01
1.409999999999999920e+00 -2.323385079612080573e-01
1.419999999999999929e+00 -2.012974441175292839e-01
1.429999999999999938e+00 -1.598500566286588376e-01
1.439999999999999947e+00 -1.111244220058579396e-01
1.449999999999999956e+00 -5.608899536829582699e-02
1.459999999999999964e+00 1.940467055099037936e-03
1.469999999999999973e+00 6.088198371755962346e-02
1.479999999999999982e+00 1.181724303568607443e-01
1.489999999999999991e+00 1.712823550549602003e-01
1.500000000000000000e+00 2.182075274981735979e-01
1.510000000000000009e+00 2.570205193660800580e-01
1.520000000000000018e+00 2.860270172307043390e-01
1.530000000000000027e+00 3.047074573077154236e-01
1.540000000000000036e+00 3.115420712808876225e-01
1.550000000000000044e+00 3.077648856019092882e-01
1.560000000000000053e+00 2.920831564671007019e-01
1.570000000000000062e+00 2.671545895677084892e-01
1.580000000000000071e+00 2.325538367149413421e-01
1.590000000000000080e+00 1.912643426370206901e-01
1.600000000000000089e+00 1.442636967413149784e-01
1.610000000000000098e+00 9.411302600884710601e-02
1.620000000000000107e+00 4.268724467300046010e-02
1.630000000000000115e+00 -7.776386218377642941e-03
1.640000000000000124e+00 -5.542161273800733090e-02
1.650000000000000133e+00 -9.816950684708589114e-02
1.660000000000000142e+00 -1.350280132747891382e-01
1.669999999999999929e+00 -1.639625381802181092e-01
1.679999999999999938e+00 -1.853912876200999593e-01
1.689999999999999947e+00 -1.973516236004484170e-01
1.699999999999999956e+00 -2.015093602556066177e-01
1.709999999999999964e+00 -1.969655610072223728e-01
1.719999999999999973e+00 -1.855712278136662785e-01
1.729999999999999982e+00 -1.677950598543639649e-01
1.739999999999999991e+00 -1.454538309468831059e-01
1.750000000000000000e+00 -1.199737277111841971e-01
1.760000000000000009e+00 -9.315551997553858654e-02
1.770000000000000018e+00 -6.667216601991882152e-02
1.780000000000000027e+00 -4.241063212089617174e-02
1.790000000000000036e+00 -2.151994821160332222e-02
1.800000000000000044e+00 -6.058702432434752948e-03
1.810000000000000053e+00 3.857128260595598518e-03
1.820000000000000062e+00 6.315648293562905850e-03
1.830000000000000071e+00 2.040810585434488754e-03
1.840000000000000080e+00 -9.954109938721100032e-03
1.850000000000000089e+00 -2.868096678339201316e-02
1.860000000000000098e+00 -5.393503988214038564e-02
1.870000000000000107e+00 -8.459070666426009300e-02
1.880000000000000115e+00 -1.194894500868955156e-01
1.890000000000000124e+00 -1.573604391606651665e-01
1.900000000000000133e+00 -1.966363810192058859e-01
1.910000000000000142e+00 -2.358111389556381277e-01
1.919999999999999929e+00 -2.735918508876549748e-01
1.929999999999999938e+00 -3.081473713151007821e-01
1.939999999999999947e+00 -3.389176912250526641e-01
1.949999999999999956e+00 -3.642256829077052394e-01
1.959999999999999964e+00 -3.840415292240547673e-01
1.969999999999999973e+00 -3.974190564466369424e-01
1.979999999999999982e+00 -4.046303708632112972e-01
1.989999999999999991e+00 -4.057262196895030648e-01
2.000000000000000000e+00 -4.011754319315112838e-01
2.010000000000000231e+00 -3.919263524632350948e-01
2.020000000000000018e+00 -3.786437392948445724e-01
2.030000000000000249e+00 -3.627674184237983379e-01
2.040000000000000036e+00 -3.452235410923564785e-01
2.049999999999999822e+00 -3.273757195580161983e-01
2.060000000000000053e+00 -3.104360519388781881e-01
2.069999999999999840e+00 -2.952678959705172801e-01
2.080000000000000071e+00 -2.829977661612556039e-01
2.089999999999999858e+00 -2.740083358218377008e-01
2.100000000000000089e+00 -2.688646999072897836e-01
2.109999999999999876e+00 -2.675604016049866751e-01
2.120000000000000107e+00 -2.698540581198394239e-01
2.129999999999999893e+00 -2.753605350061818502e-01
2.140000000000000124e+00 -2.831269672998782960e-01
2.149999999999999911e+00 -2.923062490800307778e-01
2.160000000000000142e+00 -3.016492850251317193e-01
2.169999999999999929e+00 -3.097075510230491435e-01
2.180000000000000160e+00 -3.154382392491605347e-01
2.189999999999999947e+00 -3.170317550839409360e-01
2.200000000000000178e+00 -3.137746158807159791e-01
2.209999999999999964e+00 -3.041148424209063061e-01
2.220000000000000195e+00 -2.875630736816895405e-01
2.229999999999999982e+00 -2.634163631751931245e-01
2.240000000000000213e+00 -2.313641063025284050e-01
2.250000000000000000e+00 -1.918777672023863901e-01
2.260000000000000231e+00 -1.448964509769676001e-01
2.270000000000000018e+00 -9.200976369821591005e-02
2.280000000000000249e+00 -3.361923084239050452e-02
2.290000000000000036e+00 2.805442675905728614e-02
2.300000000000000266e+00 9.174651977251949142e-02
2.310000000000000053e+00 1.553195486522969404e-01
2.319999999999999840e+00 2.167070504500933914e-01
2.330000000000000071e+00 2.740715349462201633e-01
2.339999999999999858e+00 3.252576331460302894e-01
2.350000000000000089e+00 3.685400264533920112e-01
2.359999999999999876e+00 4.025314012439555889e-01
2.370000000000000107e+00 4.254596374951084004e-01
2.379999999999999893e+00 4.373709071553424921e-01
2.390000000000000124e+00 4.364162850301143148e-01
2.399999999999999911e+00 4.243623663580265992e-01
2.410000000000000142e+00 3.994458804893507575e-01
2.419999999999999929e+00 3.646616101986747682e-01
2.430000000000000160e+00 3.195878275539070223e-01
2.439999999999999947e+00 2.670728579027693561e-01
2.450000000000000178e+00 2.082764794892102422e-01
2.459999999999999964e+00 1.457746033794116158e-01
2.470000000000000195e+00 8.165671514115477314e-02
2.479999999999999982e+00 1.840358016138355160e-02
2.490000000000000213e+00 -4.190118493564368163e-02
2.500000000000000000e+00 -9.664029252866536412e-02
2.510000000000000231e+00 -1.446709353141803489e-01
2.520000000000000018e+00 -1.830719558756636889e-01
2.530000000000000249e+00 -2.121935804776592938e-01
2.540000000000000036e+00 -2.292469245213503148e-01
2.550000000000000266e+00 -2.356503194641022814e-01
2.560000000000000053e+00 -2.299098389602490244e-01
2.569999999999999840e+00 -2.135921496303260225e-01
2.580000000000000071e+00 -1.868768753307550878e-01
2.589999999999999858e+00 -1.513453122494099468e-01
2.600000000000000089e+00 -1.085487314757616062e-01
2.609999999999999876e+00 -6.013900452011732706e-02
2.620000000000000107e+00 -8.353350886747972631e-03
2.629999999999999893e+00 4.490638434242306271e-02
2.640000000000000124e+00 9.759915778296762712e-02
2.649999999999999911e+00 1.473742315041418061e-01
2.660000000000000142e+00 1.930527910948806880e-01
2.669999999999999929e+00 2.322751185510688043e-01
2.680000000000000160e+00 2.646027583916823467e-01
2.689999999999999947e+00 2.884303263433885545e-01
2.700000000000000178e+00 3.037227891924892398e-01
2.709999999999999964e+00 3.101156793328452288e-01
2.720000000000000195e+00 3.077993938353855707e-01
2.729999999999999982e+00 2.977039034719354826e-01
2.740000000000000213e+00 2.802222719819335017e-01
2.750000000000000000e+00 2.572252548592230958e-01
2.760000000000000231e+00 2.294159798046794541e-01
2.770000000000000018e+00 1.989415494088729031e-01
2.780000000000000249e+00 1.670310339578792713e-01
2.790000000000000036e+00 1.354138519334641133e-01
2.800000000000000266e+00 1.056440192786866350e-01
2.810000000000000053e+00 7.888133086381921011e-02
2.819999999999999840e+00 5.639460880400341825e-02
2.830000000000000071e+00 3.894314252929852865e-02
2.839999999999999858e+00 2.698755140021255952e-02
2.850000000000000089e+00 2.099364281858923445e-02
2.859999999999999876e+00 2.041099380659720450e-02
2.870000000000000107e+00 2.540728504363448659e-02
2.879999999999999893e+00 3.458413040331644039e-02
2.890000000000000124e+00 4.769571729897875700e-02
2.899999999999999911e+00 6.300987855020703798e-02
2.910000000000000142e+00 7.958096793605706765e-02
2.919999999999999929e+00 9.594627429149524267e-02
2.930000000000000160e+00 1.107624376966474533e-01
2.939999999999999947e+00 1.228385134907020587e-01
2.950000000000000178e+00 1.310329702874287461e-01
2.959999999999999964e+00 1.343407618143165894e-01
2.970000000000000195e+00 1.323419927923278339e-01
2.979999999999999982e+00 1.241787633444236677e-01
2.990000000000000213e+00 1.104208936979865219e-01
3.000000000000000000e+00 9.042224254267308692e-02
3.010000000000000231e+00 6.561752191332483053e-02
3.020000000000000018e+00 3.592033037092498549e-02
3.030000000000000249e+00 3.061004910837749823e-03
3.040000000000000036e+00 -3.217077358863371789e-02
3.050000000000000266e+00 -6.819548863358246282e-02
3.060000000000000053e+00 -1.036702793431785730e-01
3.070000000000000284e+00 -1.371059129088107453e-01
3.080000000000000071e+00 -1.672199225118682353e-01
3.089999999999999858e+00 -1.925090805122177395e-01
3.100000000000000089e+00 -2.123495663263801625e-01
3.109999999999999876e+00 -2.251566793793738364e-01
3.120000000000000107e+00 -2.313793970312940096e-01
3.129999999999999893e+00 -2.293878289630245371e-01
3.140000000000000124e+00 -2.205991803985137001e-01
3.149999999999999911e+00 -2.041477217695528701e-01
3.160000000000000142e+00 -1.815909754834217071e-01
3.169999999999999929e+00 -1.531720064477976317e-01
3.180000000000000160e+00 -1.203812387628657998e-01
3.189999999999999947e+00 -8.431343953670442093e-02
3.200000000000000178e+00 -4.643075148925079887e-02
3.209999999999999964e+00 -8.144159375439413706e-03
3.220000000000000195e+00 2.900192988925383297e-02
3.229999999999999982e+00 6.390301617914223575e-02
3.240000000000000213e+00 9.482531418263479006e-02
3.250000000000000000e+00 1.214449443477459145e-01
3.260000000000000231e+00 1.420075585254240436e-01
3.270000000000000018e+00 1.569127701157903565e-01
3.280000000000000249e+00 1.650565476352016669e-01
3.290000000000000036e+00 1.670729111868624328e-01
3.300000000000000266e+00 1.628288309162226055e-01
3.310000000000000053e+00 1.530651866529025851e-01
3.320000000000000284e+00 1.385363709544091271e-01
3.330000000000000071e+00 1.200764834933858438e-01
3.339999999999999858e+00 9.896946641871004480e-02
3.350000000000000089e+00 7.621220918641959108e-02
3.359999999999999876e+00 5.309762675129436199e-02
3.370000000000000107e+00 3.087754055891072866e-02
3.379999999999999893e+00 1.040367259268263657e-02
3.390000000000000124e+00 -7.020417513735270620e-03
3.399999999999999911e+00 -2.102788153570461782e-02
3.410000000000000142e+00 -3.071205943376946121e-02
3.419999999999999929e+00 -3.601711129797924293e-02
3.430000000000000160e+00 -3.674528894859314943e-02
3.439999999999999947e+00 -3.305550022516642178e-02
3.450000000000000178e+00 -2.549675048148789674e-02
3.459999999999999964e+00 -1.443396304540035292e-02
3.470000000000000195e+00 -9.338827533534686115e-04
3.479999999999999982e+00 1.436855647464726354e-02
3.490000000000000213e+00 3.030727662546898321e-02
3.500000000000000000e+00 4.589894797342117250e-02
3.510000000000000231e+00 6.026314623887226579e-02
3.520000000000000018e+00 7.230318474780596250e-02
3.530000000000000249e+00 8.146180889864150509e-02
3.540000000000000036e+00 8.695205780525863681e-02
3.550000000000000266e+00 8.845275466924333585e-02
3.560000000000000053e+00 8.580700135324749456e-02
3.570000000000000284e+00 7.889199695805314272e-02
3.580000000000000071e+00 6.826672913474618465e-02
3.589999999999999858e+00 5.404888283384781666e-02
3.600000000000000089e+00 3.733648769634028558e-02
3.609999999999999876e+00 1.860371377590612843e-02
3.620000000000000107e+00 -9.046221850902091098e-04
3.629999999999999893e+00 -2.022093406925287717e-02
3.640000000000000124e+00 -3.831924060305755275e-02
3.649999999999999911e+00 -5.402680575633558857e-02
3.660000000000000142e+00 -6.650304920776260731e-02
3.669999999999999929e+00 -7.484337964606702087e-02
3.680000000000000160e+00 -7.831209834782541790e-02
3.689999999999999947e+00 -7.666401790633226021e-02
3.700000000000000178e+00 -6.923559628068140515e-02
3.709999999999999964e+00 -5.662507245004762962e-02
3.720000000000000195e+00 -3.829585082194897350e-02
3.729999999999999982e+00 -1.556046065043285333e-02
3.740000000000000213e+00 1.170397961229600187e-02
3.750000000000000000e+00 4.196564869424625199e-02
3.760000000000000231e+00 7.462935471902717999e-02
3.770000000000000018e+00 1.083535588414307888e-01
3.780000000000000249e+00 1.420758413680312249e-01
3.790000000000000036e+00 1.745844951908794573e-01
3.800000000000000266e+00 2.048440458107741724e-01
3.810000000000000053e+00 2.316789973297479488e-01
3.820000000000000284e+00 2.545538208851933493e-01
3.830000000000000071e+00 2.722652523219806775e-01
3.839999999999999858e+00 2.850995086328865780e-01
3.850000000000000089e+00 2.918417655950356626e-01
3.859999999999999876e+00 2.935281015001334204e-01
