# [DEFAULT]
# # input and output specifications
# dataformat = QA
# outputtype = gr
# 
# # PDF calculation setup
# mode = xray
# wavelength = 
# composition = Cl4.0Cr1.0Na1.0
# bgscale = 1.0
# rpoly = 0.9
# qmaxinst = 28
# qmin = 0.0
# qmax = 22
# rmin = 0.0
# rmax = 30.0
# rstep = 0.01
# 
# # End of config --------------------------------------------------------------
# 
# #### start data
# #S 1
# #L r(Å)  G(Å$^$)
# 
0.000000000000000000e+00 0.000000000000000000e+00
1.000000000000000021e-02 -4.241429161440076270e-03
2.000000000000000042e-02 -8.531269991414824547e-03
2.999999999999999889e-02 -1.291618727720134606e-02
4.000000000000000083e-02 -1.739512311342746032e-02
5.000000000000000278e-02 -2.194835117635162217e-02
5.999999999999999778e-02 -2.649584532149544189e-02
7.000000000000000666e-02 -3.092039918903908766e-02
8.000000000000000167e-02 -3.503665068926029025e-02
8.999999999999999667e-02 -3.866432927269145003e-02
1.000000000000000056e-01 -4.148827856818035342e-02
1.100000000000000006e-01 -4.336620660475097588e-02
1.199999999999999956e-01 -4.384083095457139145e-02
1.300000000000000044e-01 -4.291569042163982661e-02
1.400000000000000133e-01 -4.010132823425886089e-02
1.499999999999999944e-01 -3.553624610541683548e-02
1.600000000000000033e-01 -2.892834161513102575e-02
1.700000000000000122e-01 -2.048511406894801962e-02
1.799999999999999933e-01 -1.024611495094802927e-02
1.900000000000000022e-01 1.484499284386650965e-03
2.000000000000000111e-01 1.433348224928944654e-02
2.099999999999999922e-01 2.783846851622022445e-02
2.200000000000000011e-01 4.142657080646315604e-02
2.300000000000000100e-01 5.439025183531977919e-02
2.399999999999999911e-01 6.621248743921330504e-02
2.500000000000000000e-01 7.585728496434092361e-02
2.600000000000000089e-01 8.306927163871367925e-02
2.700000000000000178e-01 8.678728687135474351e-02
2.800000000000000266e-01 8.690386314799923573e-02
2.899999999999999800e-01 8.270423051059822006e-02
2.999999999999999889e-01 7.418900249281605574e-02
3.099999999999999978e-01 6.125499991369282027e-02
3.200000000000000067e-01 4.403117369692950700e-02
3.300000000000000155e-01 2.310928867112365878e-02
3.400000000000000244e-01 -1.149183933789596664e-03
3.500000000000000333e-01 -2.761347710944114797e-02
3.599999999999999867e-01 -5.550418633153165332e-02
3.699999999999999956e-01 -8.352701963895346748e-02
3.800000000000000044e-01 -1.103124329895919659e-01
3.900000000000000133e-01 -1.347533671424665513e-01
4.000000000000000222e-01 -1.551786433984052027e-01
4.100000000000000311e-01 -1.706362983487761664e-01
4.199999999999999845e-01 -1.797264938385085831e-01
4.299999999999999933e-01 -1.815444458573229336e-01
4.400000000000000022e-01 -1.755191582265778483e-01
4.500000000000000111e-01 -1.607569681265484107e-01
4.600000000000000200e-01 -1.378704665142007901e-01
4.700000000000000289e-01 -1.060778765764135573e-01
4.799999999999999822e-01 -6.719649624886644967e-02
4.899999999999999911e-01 -2.082462041959451393e-02
5.000000000000000000e-01 3.052693916452605544e-02
5.100000000000000089e-01 8.605422693506141474e-02
5.200000000000000178e-01 1.434434261530360688e-01
5.300000000000000266e-01 2.008391062061439802e-01
5.400000000000000355e-01 2.560092404666717281e-01
5.500000000000000444e-01 3.068157483607980573e-01
5.600000000000000533e-01 3.508946611012414563e-01
5.700000000000000622e-01 3.867361311448045402e-01
5.799999999999999600e-01 4.116559020306386762e-01
5.899999999999999689e-01 4.255928458115509350e-01
5.999999999999999778e-01 4.254946778872581437e-01
6.099999999999999867e-01 4.130263187091409161e-01
6.199999999999999956e-01 3.856322940987868542e-01
6.300000000000000044e-01 3.458407517133550990e-01
6.400000000000000133e-01 2.928670011808583995e-01
6.500000000000000222e-01 2.292017369573025320e-01
6.600000000000000311e-01 1.559976215422937684e-01
6.700000000000000400e-01 7.576224362873169860e-02
6.800000000000000488e-01 -9.027474561542812859e-03
6.900000000000000577e-01 -9.559669464491760138e-02
7.000000000000000666e-01 -1.811672010087652662e-01
7.099999999999999645e-01 -2.623518933844389833e-01
7.199999999999999734e-01 -3.372734061432760555e-01
7.299999999999999822e-01 -4.016362450741089996e-01
7.399999999999999911e-01 -4.550920543085677505e-01
7.500000000000000000e-01 -4.937392595607708601e-01
7.600000000000000089e-01 -5.178814682698292815e-01
7.700000000000000178e-01 -5.252449361278236362e-01
7.800000000000000266e-01 -5.163972927872341190e-01
7.900000000000000355e-01 -4.912811645588963105e-01
8.000000000000000444e-01 -4.506081613684917997e-01
8.100000000000000533e-01 -3.964846503517232557e-01
8.200000000000000622e-01 -3.299138693489351293e-01
8.300000000000000711e-01 -2.544863506374072104e-01
8.399999999999999689e-01 -1.718646550213030200e-01
8.499999999999999778e-01 -8.595420622262923971e-02
8.599999999999999867e-01 4.332486641440425057e-04
8.699999999999999956e-01 8.417995890001461756e-02
8.800000000000000044e-01 1.618313414304538012e-01
8.900000000000000133e-01 2.310707432640384806e-01
9.000000000000000222e-01 2.890175181541610461e-01
9.100000000000000311e-01 3.337762552410556416e-01
9.200000000000000400e-01 3.641353210162016629e-01
9.300000000000000488e-01 3.783801906609309262e-01
9.400000000000000577e-01 3.775529265614094854e-01
9.500000000000000666e-01 3.601266333807823239e-01
9.599999999999999645e-01 3.293240740312681214e-01
9.699999999999999734e-01 2.840883445265943164e-01
9.799999999999999822e-01 2.288017576302756317e-01
9.899999999999999911e-01 1.642538308294839711e-01
1.000000000000000000e+00 9.424445429197196578e-02
1.010000000000000009e+00 2.117958780335379987e-02
1.020000000000000018e+00 -5.165360100495287876e-02
1.030000000000000027e+00 -1.214075369340659460e-01
1.040000000000000036e+00 -1.850332766384800709e-01
1.050000000000000044e+00 -2.404975299413323331e-01
1.060000000000000053e+00 -2.847387811524117462e-01
1.070000000000000062e+00 -3.175315538899406986e-01
1.080000000000000071e+00 -3.357224101511526171e-01
1.090000000000000080e+00 -3.411479122810319176e-01
1.100000000000000089e+00 -3.314035123164713603e-01
1.110000000000000098e+00 -3.093651887845392801e-01
1.120000000000000107e+00 -2.745978670505477837e-01
1.130000000000000115e+00 -2.299341106980219152e-01
1.140000000000000124e+00 -1.768747131080868340e-01
1.150000000000000133e+00 -1.181869896584954310e-01
1.159999999999999920e+00 -5.646321805103324959e-02
1.169999999999999929e+00 5.418017835052878206e-03
1.179999999999999938e+00 6.492677403358995680e-02
1.189999999999999947e+00 1.188330751530168872e-01
1.199999999999999956e+00 1.658246565041764098e-01
1.209999999999999964e+00 2.021711912502168196e-01
1.219999999999999973e+00 2.282203491577513288e-01
1.229999999999999982e+00 2.410368749663386601e-01
1.239999999999999991e+00 2.416453329404343042e-01
1.250000000000000000e+00 2.288801116484761589e-01
1.260000000000000009e+00 2.040659109826252482e-01
1.270000000000000018e+00 1.679882984987936256e-01
1.280000000000000027e+00 1.221910424602566381e-01
1.290000000000000036e+00 6.896626760023771840e-02
1.300000000000000044e+00 1.021370880508306808e-02
1.310000000000000053e+00 -5.118673440646900191e-02
1.320000000000000062e+00 -1.127165093672795881e-01
1.330000000000000071e+00 -1.719813279557100838e-01
1.340000000000000080e+00 -2.258209297796974491e-01
1.350000000000000089e+00 -2.728720066939556155e-01
1.360000000000000098e+00 -3.102408906630576557e-01
1.370000000000000107e+00 -3.372327777510096825e-01
1.380000000000000115e+00 -3.522008382955311157e-01
1.390000000000000124e+00 -3.548290406896784099e-01
1.400000000000000133e+00 -3.452530914802425244e-01
1.409999999999999920e+00 -3.234271889758055796e-01
1.419999999999999929e+00 -2.912376748634670776e-01
1.429999999999999938e+00 -2.490159952078533356e-01
1.439999999999999947e+00 -1.998168631345020874e-01
1.449999999999999956e+00 -1.446283902979741964e-01
1.459999999999999964e+00 -8.666628414938257197e-02
1.469999999999999973e+00 -2.799365692248401497e-02
1.479999999999999982e+00 2.890761986232193853e-02
1.489999999999999991e+00 8.155345019188353639e-02
1.500000000000000000e+00 1.279989200869252608e-01
1.510000000000000009e+00 1.663608239326577198e-01
1.520000000000000018e+00 1.949855843559774038e-01
1.530000000000000027e+00 2.133758265669752907e-01
1.540000000000000036e+00 2.200379400599543900e-01
1.550000000000000044e+00 2.161985134852561774e-01
1.560000000000000053e+00 2.005792249391082360e-01
1.570000000000000062e+00 1.758082288780806746e-01
1.580000000000000071e+00 1.414610419605208114e-01
1.590000000000000080e+00 1.004886697908847909e-01
1.600000000000000089e+00 5.385841686009171930e-02
1.610000000000000098e+00 4.110600137486426602e-03
1.620000000000000107e+00 -4.688834342697215801e-02
1.630000000000000115e+00 -9.690541732519687701e-02
1.640000000000000124e+00 -1.440798923558319067e-01
1.650000000000000133e+00 -1.863161286986001752e-01
1.660000000000000142e+00 -2.226040987264637228e-01
1.669999999999999929e+00 -2.508666558006809044e-01
1.679999999999999938e+00 -2.715027425637030478e-01
1.689999999999999947e+00 -2.824771159639729023e-01
1.699999999999999956e+00 -2.854484940930998582e-01
1.709999999999999964e+00 -2.794396962004809248e-01
1.719999999999999973e+00 -2.663003758375053764e-01
1.729999999999999982e+00 -2.464456029053264385e-01
1.739999999999999991e+00 -2.216967815008132336e-01
1.750000000000000000e+00 -1.934732647821782725e-01
1.760000000000000009e+00 -1.635910475419835308e-01
1.770000000000000018e+00 -1.337703645786130491e-01
1.780000000000000027e+00 -1.059333745286242523e-01
1.790000000000000036e+00 -8.131718191214640234e-02
1.800000000000000044e+00 -6.204888922871822782e-02
1.810000000000000053e+00 -4.834111259177785447e-02
1.820000000000000062e+00 -4.221580299187387142e-02
1.830000000000000071e+00 -4.302378602686532383e-02
1.840000000000000080e+00 -5.187260874762394253e-02
1.850000000000000089e+00 -6.782515960136339950e-02
1.860000000000000098e+00 -9.075821904578583454e-02
1.870000000000000107e+00 -1.195731963234426681e-01
1.880000000000000115e+00 -1.531123439431959221e-01
1.890000000000000124e+00 -1.900978625297033708e-01
1.900000000000000133e+00 -2.288681851665585465e-01
1.910000000000000142e+00 -2.678518683973147851e-01
1.919999999999999929e+00 -3.055913300683072986e-01
1.929999999999999938e+00 -3.400932215577638362e-01
1.939999999999999947e+00 -3.706150548604357775e-01
1.949999999999999956e+00 -3.952141300430070947e-01
1.959999999999999964e+00 -4.136862948690048780e-01
1.969999999999999973e+00 -4.247852086177991149e-01
1.979999999999999982e+00 -4.285990033433171309e-01
1.989999999999999991e+00 -4.249474862127060049e-01
2.000000000000000000e+00 -4.140900542915975646e-01
2.010000000000000231e+00 -3.969141576667872817e-01
2.020000000000000018e+00 -3.738501688045832161e-01
2.030000000000000249e+00 -3.465143844580034771e-01
2.040000000000000036e+00 -3.156037204640219640e-01
2.049999999999999822e+00 -2.828815638862368642e-01
2.060000000000000053e+00 -2.494653531005246727e-01
2.069999999999999840e+00 -2.167049964614951030e-01
2.080000000000000071e+00 -1.859017642196467146e-01
2.089999999999999858e+00 -1.579107379335812633e-01
2.100000000000000089e+00 -1.336938785390446305e-01
2.109999999999999876e+00 -1.137451272709000399e-01
2.120000000000000107e+00 -9.828681969035955868e-02
2.129999999999999893e+00 -8.752310989936366858e-02
2.140000000000000124e+00 -8.083520636038514506e-02
2.149999999999999911e+00 -7.811244757663893257e-02
2.160000000000000142e+00 -7.811519763112087511e-02
2.169999999999999929e+00 -8.030855279282289594e-02
2.180000000000000160e+00 -8.330169119709115999e-02
2.189999999999999947e+00 -8.601597763191076718e-02
2.200000000000000178e+00 -8.733332111901997985e-02
2.209999999999999964e+00 -8.600061070825507081e-02
2.220000000000000195e+00 -8.114113519577496880e-02
2.229999999999999982e+00 -7.187045107720420323e-02
2.240000000000000213e+00 -5.749228702550807785e-02
2.250000000000000000e+00 -3.790168478181438899e-02
2.260000000000000231e+00 -1.258515843621593050e-02
2.270000000000000018e+00 1.764226893896936668e-02
2.280000000000000249e+00 5.300435364353182216e-02
2.290000000000000036e+00 9.199501534968419769e-02
2.300000000000000266e+00 1.342170497685017672e-01
2.310000000000000053e+00 1.780264001710870625e-01
2.319999999999999840e+00 2.222708894940839675e-01
2.330000000000000071e+00 2.654718963850187241e-01
2.339999999999999858e+00 3.061508767311384438e-01
2.350000000000000089e+00 3.429026810133696812e-01
2.359999999999999876e+00 3.745549312481332715e-01
2.370000000000000107e+00 3.996690424452155610e-01
2.379999999999999893e+00 4.179367683925211407e-01
2.390000000000000124e+00 4.278430245182340275e-01
2.399999999999999911e+00 4.302678807238962122e-01
2.410000000000000142e+00 4.236987924917890447e-01
2.419999999999999929e+00 4.099663418927973479e-01
2.430000000000000160e+00 3.884558272538761181e-01
2.439999999999999947e+00 3.610023801567359691e-01
2.450000000000000178e+00 3.281450224809764893e-01
2.459999999999999964e+00 2.915789442113843055e-01
2.470000000000000195e+00 2.526180348468644032e-01
2.479999999999999982e+00 2.128940907054327203e-01
2.490000000000000213e+00 1.738763413079202347e-01
2.500000000000000000e+00 1.372626508975464121e-01
2.510000000000000231e+00 1.040198647869503418e-01
2.520000000000000018e+00 7.601135242900043665e-02
2.530000000000000249e+00 5.326829603317959766e-02
2.540000000000000036e+00 3.755895092848681588e-02
2.550000000000000266e+00 2.816253758588372486e-02
2.560000000000000053e+00 2.602356605514597951e-02
2.569999999999999840e+00 3.021742777408691072e-02
2.580000000000000071e+00 4.060239947926493065e-02
2.589999999999999858e+00 5.615119561060853692e-02
2.600000000000000089e+00 7.582823677741153123e-02
2.609999999999999876e+00 9.847951939231518181e-02
2.620000000000000107e+00 1.226485008975600755e-01
2.629999999999999893e+00 1.469504110030746269e-01
2.640000000000000124e+00 1.701250691670314619e-01
2.649999999999999911e+00 1.904472799501347458e-01
2.660000000000000142e+00 2.072980705031751969e-01
2.669999999999999929e+00 2.190131865544683865e-01
2.680000000000000160e+00 2.254697065551545809e-01
2.689999999999999947e+00 2.256316011219826334e-01
2.700000000000000178e+00 2.196542074303513559e-01
2.709999999999999964e+00 2.074474169744552621e-01
2.720000000000000195e+00 1.893550860702134797e-01
2.729999999999999982e+00 1.662170351012674518e-01
2.740000000000000213e+00 1.385897176301703893e-01
2.750000000000000000e+00 1.079183713977193981e-01
2.760000000000000231e+00 7.508692368293397312e-02
2.770000000000000018e+00 4.161228185799609874e-02
2.780000000000000249e+00 8.828377347026006988e-03
2.790000000000000036e+00 -2.213330799752133426e-02
2.800000000000000266e+00 -4.979099382261168577e-02
2.810000000000000053e+00 -7.339310067153094475e-02
2.819999999999999840e+00 -9.184364339308111191e-02
2.830000000000000071e+00 -1.046282441856567352e-01
2.839999999999999858e+00 -1.114489846987215677e-01
2.850000000000000089e+00 -1.119492141312902062e-01
2.859999999999999876e+00 -1.067699116520959002e-01
2.870000000000000107e+00 -9.573343358529115554e-02
2.879999999999999893e+00 -8.025482781015624845e-02
2.890000000000000124e+00 -6.045390206568157510e-02
2.899999999999999911e+00 -3.804048009643677675e-02
2.910000000000000142e+00 -1.376457918932099886e-02
2.919999999999999929e+00 1.095893668932330228e-02
2.930000000000000160e+00 3.497675205960337763e-02
2.939999999999999947e+00 5.715829818304286186e-02
2.950000000000000178e+00 7.646748517502306719e-02
2.959999999999999964e+00 9.195859623369721791e-02
2.970000000000000195e+00 1.031732772229152356e-01
2.979999999999999982e+00 1.092898771920439993e-01
2.990000000000000213e+00 1.106810297766604723e-01
3.000000000000000000e+00 1.066745323427393533e-01
3.010000000000000231e+00 9.839732317398673656e-02
3.020000000000000018e+00 8.560412060398732426e-02
3.030000000000000249e+00 6.970137942532145248e-02
3.040000000000000036e+00 5.117182835987489631e-02
3.050000000000000266e+00 3.129115322683610756e-02
3.060000000000000053e+00 1.104061292920925121e-02
3.070000000000000284e+00 -8.407395648736050789e-03
3.080000000000000071e+00 -2.605168993993281848e-02
3.089999999999999858e+00 -4.075438034638374785e-02
3.100000000000000089e+00 -5.196651837993421230e-02
3.109999999999999876e+00 -5.853945362838635508e-02
3.120000000000000107e+00 -6.070510249920203077e-02
3.129999999999999893e+00 -5.733608786583406502e-02
3.140000000000000124e+00 -4.938925099189980100e-02
3.149999999999999911e+00 -3.631967347817961766e-02
3.160000000000000142e+00 -1.923615238993869880e-02
3.169999999999999929e+00 1.595035412962733309e-03
3.180000000000000160e+00 2.506713273732111280e-02
3.189999999999999947e+00 5.031383080032155591e-02
3.200000000000000178e+00 7.620874195832971765e-02
3.209999999999999964e+00 1.017078634211999177e-01
3.220000000000000195e+00 1.255925893161282392e-01
3.229999999999999982e+00 1.471241759849966357e-01
3.240000000000000213e+00 1.649284485179651760e-01
3.250000000000000000e+00 1.789214835800861658e-01
3.260000000000000231e+00 1.877470025719548963e-01
3.270000000000000018e+00 1.918866469087910365e-01
3.280000000000000249e+00 1.905605362081013721e-01
3.290000000000000036e+00 1.844096353885420203e-01
3.300000000000000266e+00 1.734591204677618792e-01
3.310000000000000053e+00 1.584298059184991725e-01
3.320000000000000284e+00 1.400392600852826686e-01
3.330000000000000071e+00 1.190987510805654875e-01
3.339999999999999858e+00 9.668680069586479964e-02
3.350000000000000089e+00 7.377668913267673712e-02
3.359999999999999876e+00 5.135515925999580011e-02
3.370000000000000107e+00 3.063701092221050512e-02
3.379999999999999893e+00 1.216506957853566093e-02
3.390000000000000124e+00 -2.857068199119716743e-03
3.399999999999999911e+00 -1.427755758174673387e-02
3.410000000000000142e+00 -2.131957022771443708e-02
3.419999999999999929e+00 -2.406064384357127842e-02
3.430000000000000160e+00 -2.240096897894461314e-02
3.439999999999999947e+00 -1.657670379206551553e-02
3.450000000000000178e+00 -7.166803714518376993e-03
3.459999999999999964e+00 5.423409641120762945e-03
3.470000000000000195e+00 2.016718488632932710e-02
3.479999999999999982e+00 3.641419258334214343e-02
3.490000000000000213e+00 5.308029992245952289e-02
3.500000000000000000e+00 6.919031131301184301e-02
3.510000000000000231e+00 8.394170953393638446e-02
3.520000000000000018e+00 9.626188818440320483e-02
3.530000000000000249e+00 1.056354156688261298e-01
3.540000000000000036e+00 1.112862627610654576e-01
3.550000000000000266e+00 1.128909163842055779e-01
3.560000000000000053e+00 1.102685102081856910e-01
3.570000000000000284e+00 1.032398907933929078e-01
3.580000000000000071e+00 9.230899797507949311e-02
3.589999999999999858e+00 7.746857246962784993e-02
3.600000000000000089e+00 5.976292279239756033e-02
3.609999999999999876e+00 3.945501374560832220e-02
3.620000000000000107e+00 1.776904502561306790e-02
3.629999999999999893e+00 -4.571971783747083920e-03
3.640000000000000124e+00 -2.655531210217173740e-02
3.649999999999999911e+00 -4.720820547538501222e-02
3.660000000000000142e+00 -6.571396884187087617e-02
3.669999999999999929e+00 -8.126058770785056506e-02
3.680000000000000160e+00 -9.314996056043955974e-02
3.689999999999999947e+00 -1.010842815924371807e-01
3.700000000000000178e+00 -1.044420577422013746e-01
3.709999999999999964e+00 -1.036220231415479059e-01
3.720000000000000195e+00 -9.810866279591792805e-02
3.729999999999999982e+00 -8.891538939543698616e-02
3.740000000000000213e+00 -7.585877340232752286e-02
3.750000000000000000e+00 -6.016551686140769045e-02
3.760000000000000231e+00 -4.224877506735151556e-02
3.770000000000000018e+00 -2.319203168699525766e-02
3.780000000000000249e+00 -3.814623406088511401e-03
3.790000000000000036e+00 1.491012955257603467e-02
3.800000000000000266e+00 3.215426804260249072e-02
3.810000000000000053e+00 4.699076202714454198e-02
3.820000000000000284e+00 5.896820021114136667e-02
3.830000000000000071e+00 6.716350187404510064e-02
3.839999999999999858e+00 7.176482330703197465e-02
3.850000000000000089e+00 7.187476426534143703e-02
3.859999999999999876e+00 6.827430355864529121e-02
