# [DEFAULT]
# # input and output specifications
# dataformat = QA
# outputtype = gr
# 
# # PDF calculation setup
# mode = xray
# wavelength = 
# composition = Cl4.0Cr1.0Na1.0
# bgscale = 1.0
# rpoly = 0.9
# qmaxinst = 28
# qmin = 0.0
# qmax = 22
# rmin = 0.0
# rmax = 30.0
# rstep = 0.01
# 
# # End of config --------------------------------------------------------------
# 
# #### start data
# #S 1
# #L r(Å)  G(Å$^$)
# 
0.000000000000000000e+00 0.000000000000000000e+00
1.000000000000000021e-02 -3.971391865887002187e-03
2.000000000000000042e-02 -8.008274499939420712e-03
2.999999999999999889e-02 -1.217792268687126374e-02
4.000000000000000083e-02 -1.648954064792610211e-02
5.000000000000000278e-02 -2.093922087251957886e-02
5.999999999999999778e-02 -2.545145983092530345e-02
7.000000000000000666e-02 -2.991314514590184825e-02
8.000000000000000167e-02 -3.413832516817619928e-02
8.999999999999999667e-02 -3.793719154899365814e-02
1.000000000000000056e-01 -4.098844012904701711e-02
1.100000000000000006e-01 -4.313047004597642120e-02
1.199999999999999956e-01 -4.389295696309621769e-02
1.300000000000000044e-01 -4.325852000630060756e-02
1.400000000000000133e-01 -4.071731337177685733e-02
1.499999999999999944e-01 -3.639258206411009888e-02
1.600000000000000033e-01 -2.997120367741291924e-02
1.700000000000000122e-01 -2.165168421802542154e-02
1.799999999999999933e-01 -1.146113417446824323e-02
1.900000000000000022e-01 2.996836680983915209e-04
2.000000000000000111e-01 1.325556022600777803e-02
2.099999999999999922e-01 2.694169044864286669e-02
2.200000000000000011e-01 4.076905007244498863e-02
2.300000000000000100e-01 5.402043091115395212e-02
2.399999999999999911e-01 6.615508629097843762e-02
2.500000000000000000e-01 7.611827457127259833e-02
2.600000000000000089e-01 8.363305322195455083e-02
2.700000000000000178e-01 8.761355901100174870e-02
2.800000000000000266e-01 8.793836014400088774e-02
2.899999999999999800e-01 8.387281879510938287e-02
2.999999999999999889e-01 7.541139831224959178e-02
3.099999999999999978e-01 6.244634091437483575e-02
3.200000000000000067e-01 4.510955235359317278e-02
3.300000000000000155e-01 2.400771976723087633e-02
3.400000000000000244e-01 -4.822230998451620260e-04
3.500000000000000333e-01 -2.719982008843432539e-02
3.599999999999999867e-01 -5.533235672555610746e-02
3.699999999999999956e-01 -8.355331342492129665e-02
3.800000000000000044e-01 -1.104408323003627651e-01
3.900000000000000133e-01 -1.348625883220333777e-01
4.000000000000000222e-01 -1.550918002196059464e-01
4.100000000000000311e-01 -1.701568279014910035e-01
4.199999999999999845e-01 -1.786206183765898514e-01
4.299999999999999933e-01 -1.795646010570412787e-01
4.400000000000000022e-01 -1.724168171800430638e-01
4.500000000000000111e-01 -1.562801175025720357e-01
4.600000000000000200e-01 -1.318095167306559956e-01
4.700000000000000289e-01 -9.824084290707787992e-02
4.799999999999999822e-01 -5.746833875597968933e-02
4.899999999999999911e-01 -9.146633409073026688e-03
5.000000000000000000e-01 4.412441108196910045e-02
5.100000000000000089e-01 1.014358077007348757e-01
5.200000000000000178e-01 1.603870204873303895e-01
5.300000000000000266e-01 2.189939175468171018e-01
5.400000000000000355e-01 2.749303644893005827e-01
5.500000000000000444e-01 3.259492361897058932e-01
5.600000000000000533e-01 3.695742926937378159e-01
5.700000000000000622e-01 4.042515887104911609e-01
5.799999999999999600e-01 4.271605088315134635e-01
5.899999999999999689e-01 4.382961172205739331e-01
5.999999999999999778e-01 4.344503487705786426e-01
6.099999999999999867e-01 4.174450640922615641e-01
6.199999999999999956e-01 3.846101397736054750e-01
6.300000000000000044e-01 3.386676135647305186e-01
6.400000000000000133e-01 2.788312714731566722e-01
6.500000000000000222e-01 2.077725508512552055e-01
6.600000000000000311e-01 1.267529507149828538e-01
6.700000000000000400e-01 3.845991141972768257e-02
6.800000000000000488e-01 -5.445865339043092640e-02
6.900000000000000577e-01 -1.490262151847304983e-01
7.000000000000000666e-01 -2.423001751122185743e-01
7.099999999999999645e-01 -3.306433189850228604e-01
7.199999999999999734e-01 -4.120959835428177342e-01
7.299999999999999822e-01 -4.820423361409912344e-01
7.399999999999999911e-01 -5.401616239841267042e-01
7.500000000000000000e-01 -5.822672688687691167e-01
7.600000000000000089e-01 -6.087152909372323117e-01
7.700000000000000178e-01 -6.170667990324240071e-01
7.800000000000000266e-01 -6.079389326093549428e-01
7.900000000000000355e-01 -5.812640742819051853e-01
8.000000000000000444e-01 -5.377913994791704289e-01
8.100000000000000533e-01 -4.797681893793069308e-01
8.200000000000000622e-01 -4.082314415959223397e-01
8.300000000000000711e-01 -3.270230933035304655e-01
8.399999999999999689e-01 -2.378579936964859975e-01
8.499999999999999778e-01 -1.449292007687489059e-01
8.599999999999999867e-01 -5.116475514076014586e-02
8.699999999999999956e-01 4.007920220891799529e-02
8.800000000000000044e-01 1.251739372860672106e-01
8.900000000000000133e-01 2.016300353510595278e-01
9.000000000000000222e-01 2.664007487907103511e-01
9.100000000000000311e-01 3.174578012775831626e-01
9.200000000000000400e-01 3.534979455678485261e-01
9.300000000000000488e-01 3.726947374235342614e-01
9.400000000000000577e-01 3.761121373802124856e-01
9.500000000000000666e-01 3.621263612216015226e-01
9.599999999999999645e-01 3.340989668284931602e-01
9.699999999999999734e-01 2.909002262604150624e-01
9.799999999999999822e-01 2.371197260139905616e-01
9.899999999999999911e-01 1.735676091751593431e-01
1.000000000000000000e+00 1.042281496557041914e-01
1.010000000000000009e+00 3.161303525478522530e-02
1.020000000000000018e+00 -4.083097301954839026e-02
1.030000000000000027e+00 -1.101221996347041265e-01
1.040000000000000036e+00 -1.730671056610532110e-01
1.050000000000000044e+00 -2.275318026277474981e-01
1.060000000000000053e+00 -2.703155422587745216e-01
1.070000000000000062e+00 -3.011747133943799004e-01
1.080000000000000071e+00 -3.168202271018785154e-01
1.090000000000000080e+00 -3.191664759341168445e-01
1.100000000000000089e+00 -3.057148815927483443e-01
1.110000000000000098e+00 -2.794709433379135577e-01
1.120000000000000107e+00 -2.399988171700787598e-01
1.130000000000000115e+00 -1.902653858333655246e-01
1.140000000000000124e+00 -1.318578766722054985e-01
1.150000000000000133e+00 -6.768207394564804136e-02
1.159999999999999920e+00 -4.595907682386976556e-04
1.169999999999999929e+00 6.677971839973748103e-02
1.179999999999999938e+00 1.313925558204467881e-01
1.189999999999999947e+00 1.899738528081546529e-01
1.199999999999999956e+00 2.411713826596418586e-01
1.209999999999999964e+00 2.810503467577153414e-01
1.219999999999999973e+00 3.100080326199269320e-01
1.229999999999999982e+00 3.249537101927698624e-01
1.239999999999999991e+00 3.269882550910176433e-01
1.250000000000000000e+00 3.148910554921537930e-01
1.260000000000000009e+00 2.900714239142004325e-01
1.270000000000000018e+00 2.533653782520632891e-01
1.280000000000000027e+00 2.064072439528470970e-01
1.290000000000000036e+00 1.516176263835615490e-01
1.300000000000000044e+00 9.100123373988555642e-02
1.310000000000000053e+00 2.759365192877243078e-02
1.320000000000000062e+00 -3.595305785158631195e-02
1.330000000000000071e+00 -9.711870051569033990e-02
1.340000000000000080e+00 -1.525803100433622550e-01
1.350000000000000089e+00 -2.009062820659819060e-01
1.360000000000000098e+00 -2.390585642063974281e-01
1.370000000000000107e+00 -2.663120856051818808e-01
1.380000000000000115e+00 -2.809435244478956095e-01
1.390000000000000124e+00 -2.826296842418200561e-01
1.400000000000000133e+00 -2.715223373012579655e-01
1.409999999999999920e+00 -2.475868074603250757e-01
1.419999999999999929e+00 -2.128121787396101416e-01
1.429999999999999938e+00 -1.675658870777573806e-01
1.439999999999999947e+00 -1.150575737971675644e-01
1.449999999999999956e+00 -5.635133500404020113e-02
1.459999999999999964e+00 5.182167106721631208e-03
1.469999999999999973e+00 6.735249059950004780e-02
1.479999999999999982e+00 1.275600302049162416e-01
1.489999999999999991e+00 1.831821065923706082e-01
1.500000000000000000e+00 2.321813659907523697e-01
1.510000000000000009e+00 2.725789096511824772e-01
1.520000000000000018e+00 3.026412835033747695e-01
1.530000000000000027e+00 3.218575514346755373e-01
1.540000000000000036e+00 3.286610357034919216e-01
1.550000000000000044e+00 3.243608646277800212e-01
1.560000000000000053e+00 3.076171787990752415e-01
1.570000000000000062e+00 2.812147700994686583e-01
1.580000000000000071e+00 2.447154227387831893e-01
1.590000000000000080e+00 2.012394020912773862e-01
1.600000000000000089e+00 1.518158030206295528e-01
1.610000000000000098e+00 9.912798911441139671e-02
1.620000000000000107e+00 4.515005938844764144e-02
1.630000000000000115e+00 -7.760661688896112326e-03
1.640000000000000124e+00 -5.764088495354167951e-02
1.650000000000000133e+00 -1.022789586817718366e-01
1.660000000000000142e+00 -1.406135479859920157e-01
1.669999999999999929e+00 -1.704529777703688298e-01
1.679999999999999938e+00 -1.922253889586518771e-01
1.689999999999999947e+00 -2.037841268062016709e-01
1.699999999999999956e+00 -2.068870856355249921e-01
1.709999999999999964e+00 -2.005064002831501435e-01
1.719999999999999973e+00 -1.865997970913559623e-01
1.729999999999999982e+00 -1.656102964358352192e-01
1.739999999999999991e+00 -1.394652051195056086e-01
1.750000000000000000e+00 -1.096677738850304895e-01
1.760000000000000009e+00 -7.814074512108198922e-02
1.770000000000000018e+00 -4.670429242124682356e-02
1.780000000000000027e+00 -1.739670504160182804e-02
1.790000000000000036e+00 8.473371204765416803e-03
1.800000000000000044e+00 2.864469431324612875e-02
1.810000000000000053e+00 4.289216744395355635e-02
1.820000000000000062e+00 4.905782812653056851e-02
1.830000000000000071e+00 4.782553221597424242e-02
1.840000000000000080e+00 3.799916775682535275e-02
1.850000000000000089e+00 2.055971033463887404e-02
1.860000000000000098e+00 -4.388720880475246999e-03
1.870000000000000107e+00 -3.570525796439817656e-02
1.880000000000000115e+00 -7.218699947713186349e-02
1.890000000000000124e+00 -1.125186862505355850e-01
1.900000000000000133e+00 -1.549511429008428864e-01
1.910000000000000142e+00 -1.978779817204311953e-01
1.919999999999999929e+00 -2.397421792518051320e-01
1.929999999999999938e+00 -2.785137326674870240e-01
1.939999999999999947e+00 -3.133695277493222520e-01
1.949999999999999956e+00 -3.423241855676107948e-01
1.959999999999999964e+00 -3.651296367387922293e-01
1.969999999999999973e+00 -3.805068646478541594e-01
1.979999999999999982e+00 -3.885276131976748148e-01
1.989999999999999991e+00 -3.890030053652160924e-01
2.000000000000000000e+00 -3.821953685021854397e-01
2.010000000000000231e+00 -3.690074714319849236e-01
2.020000000000000018e+00 -3.498866613725757913e-01
2.030000000000000249e+00 -3.264764253631436408e-01
2.040000000000000036e+00 -2.995008537513847435e-01
2.049999999999999822e+00 -2.707450513145656656e-01
2.060000000000000053e+00 -2.413561192831023827e-01
2.069999999999999840e+00 -2.126889059680688032e-01
2.080000000000000071e+00 -1.860593652236099960e-01
2.089999999999999858e+00 -1.623097977852325791e-01
2.100000000000000089e+00 -1.423888957603548222e-01
2.109999999999999876e+00 -1.267570686401789659e-01
2.120000000000000107e+00 -1.155957833184079603e-01
2.129999999999999893e+00 -1.090486017451218204e-01
2.140000000000000124e+00 -1.064440600632594186e-01
2.149999999999999911e+00 -1.075747011268058106e-01
2.160000000000000142e+00 -1.111651619128470048e-01
2.169999999999999929e+00 -1.165383641235411827e-01
2.180000000000000160e+00 -1.223034324985323301e-01
2.189999999999999947e+00 -1.272376178597015295e-01
2.200000000000000178e+00 -1.302324871064733935e-01
2.209999999999999964e+00 -1.299360361118551688e-01
2.220000000000000195e+00 -1.254803968813369697e-01
2.229999999999999982e+00 -1.159570272167706334e-01
2.240000000000000213e+00 -1.006770063476139648e-01
2.250000000000000000e+00 -7.959611758055867847e-02
2.260000000000000231e+00 -5.221479852735758792e-02
2.270000000000000018e+00 -1.948041666507914146e-02
2.280000000000000249e+00 1.879307368207134080e-02
2.290000000000000036e+00 6.093376484908645530e-02
2.300000000000000266e+00 1.064537291073293646e-01
2.310000000000000053e+00 1.535585139147961353e-01
2.319999999999999840e+00 2.009557413975987528e-01
2.330000000000000071e+00 2.470431369071270089e-01
2.339999999999999858e+00 2.901994173610806804e-01
2.350000000000000089e+00 3.289062780618871584e-01
2.359999999999999876e+00 3.619008692998140764e-01
2.370000000000000107e+00 3.876288069649625467e-01
2.379999999999999893e+00 4.057851888681902608e-01
2.390000000000000124e+00 4.147325217947738785e-01
2.399999999999999911e+00 4.154656853553067020e-01
2.410000000000000142e+00 4.063521343720130075e-01
2.419999999999999929e+00 3.894166501339523245e-01
2.430000000000000160e+00 3.640096232828972656e-01
2.439999999999999947e+00 3.321498978034642668e-01
2.450000000000000178e+00 2.944448658321512924e-01
2.459999999999999964e+00 2.527553173179780677e-01
2.470000000000000195e+00 2.085277371616805764e-01
2.479999999999999982e+00 1.635543078508420178e-01
2.490000000000000213e+00 1.194432082647727267e-01
2.500000000000000000e+00 7.806505392856814829e-02
2.510000000000000231e+00 4.047208301972120975e-02
2.520000000000000018e+00 8.727801891268637327e-03
2.530000000000000249e+00 -1.714309243572801483e-02
2.540000000000000036e+00 -3.516824419870595575e-02
2.550000000000000266e+00 -4.614243708307172454e-02
2.560000000000000053e+00 -4.899044351292367039e-02
2.569999999999999840e+00 -4.471684773036825600e-02
2.580000000000000071e+00 -3.343873139525409266e-02
2.589999999999999858e+00 -1.625702904329986986e-02
2.600000000000000089e+00 5.719291208983538419e-03
2.609999999999999876e+00 3.126899991584759092e-02
2.620000000000000107e+00 5.879624164859716118e-02
2.629999999999999893e+00 8.684619444987627668e-02
2.640000000000000124e+00 1.140004452804853907e-01
2.649999999999999911e+00 1.384475638015580934e-01
2.660000000000000142e+00 1.594388717212351925e-01
2.669999999999999929e+00 1.752037988259049217e-01
2.680000000000000160e+00 1.855402415738622579e-01
2.689999999999999947e+00 1.893182361610897813e-01
2.700000000000000178e+00 1.866473387002159090e-01
2.709999999999999964e+00 1.773893647150791564e-01
2.720000000000000195e+00 1.618611153214913057e-01
2.729999999999999982e+00 1.409147642828126323e-01
2.740000000000000213e+00 1.150908170837943861e-01
2.750000000000000000e+00 8.590137764289235145e-02
2.760000000000000231e+00 5.422489158280026367e-02
2.770000000000000018e+00 2.167483960405580320e-02
2.780000000000000249e+00 -1.039858427729024176e-02
2.790000000000000036e+00 -4.077482450718140222e-02
2.800000000000000266e+00 -6.793080085289247838e-02
2.810000000000000053e+00 -9.105282368094447243e-02
2.819999999999999840e+00 -1.090002027780534732e-01
2.830000000000000071e+00 -1.212191974223917473e-01
2.839999999999999858e+00 -1.273867610124261029e-01
2.850000000000000089e+00 -1.271259536911907850e-01
2.859999999999999876e+00 -1.210831919383663080e-01
2.870000000000000107e+00 -1.090790214005678688e-01
2.879999999999999893e+00 -9.256081022460095620e-02
2.890000000000000124e+00 -7.166789735378709114e-02
2.899999999999999911e+00 -4.815359182651808567e-02
2.910000000000000142e+00 -2.281066370971212773e-02
2.919999999999999929e+00 2.906908656050838802e-03
2.930000000000000160e+00 2.779501033316538264e-02
2.939999999999999947e+00 5.068973519417581397e-02
2.950000000000000178e+00 7.051848005878140480e-02
2.959999999999999964e+00 8.630749569808310317e-02
2.970000000000000195e+00 9.759412353414975705e-02
2.979999999999999982e+00 1.035354775281839279e-01
2.990000000000000213e+00 1.045389721389899246e-01
3.000000000000000000e+00 9.992341752356108386e-02
3.010000000000000231e+00 9.088063688561019704e-02
3.020000000000000018e+00 7.718287092748500611e-02
3.030000000000000249e+00 6.030819441333194753e-02
3.040000000000000036e+00 4.078984689298741084e-02
3.050000000000000266e+00 1.996783993695682227e-02
3.060000000000000053e+00 -1.111736510029413122e-03
3.070000000000000284e+00 -2.121583315287788388e-02
3.080000000000000071e+00 -3.929217255311369394e-02
3.089999999999999858e+00 -5.414181145579084059e-02
3.100000000000000089e+00 -6.520314818996299222e-02
3.109999999999999876e+00 -7.126504323393238749e-02
3.120000000000000107e+00 -7.259916666272488162e-02
3.129999999999999893e+00 -6.801882269349554533e-02
3.140000000000000124e+00 -5.856261551793783687e-02
3.149999999999999911e+00 -4.366691615825455536e-02
3.160000000000000142e+00 -2.452453040517704741e-02
3.169999999999999929e+00 -1.434101623721848601e-03
3.180000000000000160e+00 2.441811722141624258e-02
3.189999999999999947e+00 5.210074688046691105e-02
3.200000000000000178e+00 8.040813889892953203e-02
3.209999999999999964e+00 1.082282245042745783e-01
3.220000000000000195e+00 1.342567481359436266e-01
3.229999999999999982e+00 1.577151423511242989e-01
3.240000000000000213e+00 1.771320659701088318e-01
3.250000000000000000e+00 1.924320791096418570e-01
3.260000000000000231e+00 2.021631777444025113e-01
3.270000000000000018e+00 2.068520582145801090e-01
3.280000000000000249e+00 2.056643218096593506e-01
3.290000000000000036e+00 1.992909255794933221e-01
3.300000000000000266e+00 1.877577845947142332e-01
3.310000000000000053e+00 1.718352984350988710e-01
3.320000000000000284e+00 1.522880984379899882e-01
3.330000000000000071e+00 1.299771631446103581e-01
3.339999999999999858e+00 1.060526423800893236e-01
3.350000000000000089e+00 8.154198075524575484e-02
3.359999999999999876e+00 5.750002360239896831e-02
3.370000000000000107e+00 3.520497469462195717e-02
3.379999999999999893e+00 1.524178221958790228e-02
3.390000000000000124e+00 -1.123596903555292362e-03
3.399999999999999911e+00 -1.372401830850846632e-02
3.410000000000000142e+00 -2.174276923015644111e-02
3.419999999999999929e+00 -2.525910333028090482e-02
3.430000000000000160e+00 -2.416887631172756623e-02
3.439999999999999947e+00 -1.872144604285880948e-02
3.450000000000000178e+00 -9.525688467273807358e-03
3.459999999999999964e+00 2.989696822127308092e-03
3.470000000000000195e+00 1.774777881806499993e-02
3.479999999999999982e+00 3.406308279970809982e-02
3.490000000000000213e+00 5.080234719603817645e-02
3.500000000000000000e+00 6.694312086628997904e-02
3.510000000000000231e+00 8.165154604532645632e-02
3.520000000000000018e+00 9.381049467063184988e-02
3.530000000000000249e+00 1.028910916794369135e-01
3.540000000000000036e+00 1.080946813822695335e-01
3.550000000000000266e+00 1.090995094722577163e-01
3.560000000000000053e+00 1.057344007182841050e-01
3.570000000000000284e+00 9.783761684820363458e-02
3.580000000000000071e+00 8.595199620105954674e-02
3.589999999999999858e+00 7.010772130888340281e-02
3.600000000000000089e+00 5.140075474025326829e-02
3.609999999999999876e+00 3.015854997701407011e-02
3.620000000000000107e+00 7.649102329951918723e-03
3.629999999999999893e+00 -1.532175397192710002e-02
3.640000000000000124e+00 -3.771009595874730280e-02
3.649999999999999911e+00 -5.846843991025844900e-02
3.660000000000000142e+00 -7.675544852113451444e-02
3.669999999999999929e+00 -9.171897045543973837e-02
3.680000000000000160e+00 -1.026393426057628094e-01
3.689999999999999947e+00 -1.092297662043048012e-01
3.700000000000000178e+00 -1.108513249912803783e-01
3.709999999999999964e+00 -1.079665517138409941e-01
3.720000000000000195e+00 -1.000535926055363817e-01
3.729999999999999982e+00 -8.822532540175588578e-02
3.740000000000000213e+00 -7.232159497825248196e-02
3.750000000000000000e+00 -5.367080215507871732e-02
3.760000000000000231e+00 -3.274916509699454109e-02
3.770000000000000018e+00 -1.072465858204730421e-02
3.780000000000000249e+00 1.150388958838228018e-02
3.790000000000000036e+00 3.288898052679460615e-02
3.800000000000000266e+00 5.254077151320084987e-02
3.810000000000000053e+00 6.946148229278671649e-02
3.820000000000000284e+00 8.318370967163628282e-02
3.830000000000000071e+00 9.271417859691376273e-02
3.839999999999999858e+00 9.828576318012478830e-02
3.850000000000000089e+00 9.893527237556988541e-02
3.859999999999999876e+00 9.553635648517273815e-02
