# [DEFAULT]
# # input and output specifications
# dataformat = QA
# outputtype = gr
# 
# # PDF calculation setup
# mode = xray
# wavelength = 
# composition = Cl4.0Cr1.0Na1.0
# bgscale = 1.0
# rpoly = 0.9
# qmaxinst = 28
# qmin = 0.0
# qmax = 22
# rmin = 0.0
# rmax = 30.0
# rstep = 0.01
# 
# # End of config --------------------------------------------------------------
# 
# #### start data
# #S 1
# #L r(Å)  G(Å$^$)
# 
0.000000000000000000e+00 0.000000000000000000e+00
1.000000000000000021e-02 -3.077737658668951506e-03
2.000000000000000042e-02 -6.268003871094449467e-03
2.999999999999999889e-02 -9.695393265870660623e-03
4.000000000000000083e-02 -1.339879100143851615e-02
5.000000000000000278e-02 -1.742085962199002580e-02
5.999999999999999778e-02 -2.170278428792197720e-02
7.000000000000000666e-02 -2.614847755975412136e-02
8.000000000000000167e-02 -3.057830634768355857e-02
8.999999999999999667e-02 -3.478244360960648651e-02
1.000000000000000056e-01 -3.843453176735104476e-02
1.100000000000000006e-01 -4.132214516521786479e-02
1.199999999999999956e-01 -4.295387542592912777e-02
1.300000000000000044e-01 -4.324947666711217997e-02
1.400000000000000133e-01 -4.165472240384703734e-02
1.499999999999999944e-01 -3.823929592229787650e-02
1.600000000000000033e-01 -3.263260729322825515e-02
1.700000000000000122e-01 -2.499282811806540633e-02
1.799999999999999933e-01 -1.529991647735058288e-02
1.900000000000000022e-01 -3.824377036886403118e-03
2.000000000000000111e-01 9.074473710737036500e-03
2.099999999999999922e-01 2.295299082483346145e-02
2.200000000000000011e-01 3.719701213705448734e-02
2.300000000000000100e-01 5.109807039773019838e-02
2.399999999999999911e-01 6.405436750296314430e-02
2.500000000000000000e-01 7.499965986675533047e-02
2.600000000000000089e-01 8.358100358723496992e-02
2.700000000000000178e-01 8.866644496045998636e-02
2.800000000000000266e-01 9.006858196596233268e-02
2.899999999999999800e-01 8.698750526467267929e-02
2.999999999999999889e-01 7.935974109603881332e-02
3.099999999999999978e-01 6.702224293816290424e-02
3.200000000000000067e-01 5.005400620530274514e-02
3.300000000000000155e-01 2.904281519965191960e-02
3.400000000000000244e-01 4.317748425911782997e-03
3.500000000000000333e-01 -2.292815296145440940e-02
3.599999999999999867e-01 -5.191896745368144994e-02
3.699999999999999956e-01 -8.125016795576923967e-02
3.800000000000000044e-01 -1.095008443161304967e-01
3.900000000000000133e-01 -1.354458561078109025e-01
4.000000000000000222e-01 -1.573082334965650586e-01
4.100000000000000311e-01 -1.740265408086388299e-01
4.199999999999999845e-01 -1.840816429347673644e-01
4.299999999999999933e-01 -1.864638295999409556e-01
4.400000000000000022e-01 -1.805233546478521023e-01
4.500000000000000111e-01 -1.652645153745921081e-01
4.600000000000000200e-01 -1.413065690619927373e-01
4.700000000000000289e-01 -1.077766422219037928e-01
4.799999999999999822e-01 -6.660357253503149111e-02
4.899999999999999911e-01 -1.732841883250120507e-02
5.000000000000000000e-01 3.735088746984996377e-02
5.100000000000000089e-01 9.657865908665644317e-02
5.200000000000000178e-01 1.578496851799978673e-01
5.300000000000000266e-01 2.191510882855098596e-01
5.400000000000000355e-01 2.780483337697317592e-01
5.500000000000000444e-01 3.322024338989253978e-01
5.600000000000000533e-01 3.790177349757265501e-01
5.700000000000000622e-01 4.168252782757116415e-01
5.799999999999999600e-01 4.426613625145425779e-01
5.899999999999999689e-01 4.564341519824983706e-01
5.999999999999999778e-01 4.547567088204081953e-01
6.099999999999999867e-01 4.394317294850539901e-01
6.199999999999999956e-01 4.076004056210793536e-01
6.300000000000000044e-01 3.620205938654821876e-01
6.400000000000000133e-01 3.017776807771791470e-01
6.500000000000000222e-01 2.295928599004459225e-01
6.600000000000000311e-01 1.466985217393326213e-01
6.700000000000000400e-01 5.583856853364719403e-02
6.800000000000000488e-01 -4.026605468502714169e-02
6.900000000000000577e-01 -1.385706940731388781e-01
7.000000000000000666e-01 -2.359843357086493509e-01
7.099999999999999645e-01 -3.287740397481115906e-01
7.199999999999999734e-01 -4.148074766598787155e-01
7.299999999999999822e-01 -4.893234303924874906e-01
7.399999999999999911e-01 -5.518581957402970417e-01
7.500000000000000000e-01 -5.980409126558117183e-01
7.600000000000000089e-01 -6.281272934440738087e-01
7.700000000000000178e-01 -6.395107366738321808e-01
7.800000000000000266e-01 -6.327300477113410038e-01
7.900000000000000355e-01 -6.076239911401613014e-01
8.000000000000000444e-01 -5.648698484218815929e-01
8.100000000000000533e-01 -5.067313366825850762e-01
8.200000000000000622e-01 -4.341755881278183127e-01
8.300000000000000711e-01 -3.511768759308784849e-01
8.399999999999999689e-01 -2.593915828264383716e-01
8.499999999999999778e-01 -1.632256407117380903e-01
8.599999999999999867e-01 -6.560915817147774942e-02
8.699999999999999956e-01 2.988604761552929659e-02
8.800000000000000044e-01 1.195392390571693164e-01
8.900000000000000133e-01 2.006813917487637322e-01
9.000000000000000222e-01 2.701232744870347702e-01
9.100000000000000311e-01 3.256784180888936397e-01
9.200000000000000400e-01 3.659132643199787815e-01
9.300000000000000488e-01 3.888474352919427668e-01
9.400000000000000577e-01 3.954830929880742141e-01
9.500000000000000666e-01 3.840346529640291662e-01
9.599999999999999645e-01 3.579072512318866583e-01
9.699999999999999734e-01 3.158001105351558868e-01
9.799999999999999822e-01 2.624364382310298005e-01
9.899999999999999911e-01 1.985302851080109898e-01
1.000000000000000000e+00 1.282019407107544973e-01
1.010000000000000009e+00 5.397079184494173870e-02
1.020000000000000018e+00 -2.059099121699005386e-02
1.030000000000000027e+00 -9.241294609541136906e-02
1.040000000000000036e+00 -1.581839319746161099e-01
1.050000000000000044e+00 -2.156439607470003184e-01
1.060000000000000053e+00 -2.614722391305262517e-01
1.070000000000000062e+00 -2.953133574197494560e-01
1.080000000000000071e+00 -3.137444052984290632e-01
1.090000000000000080e+00 -3.186229455999991522e-01
1.100000000000000089e+00 -3.073135046204049647e-01
1.110000000000000098e+00 -2.828202441849448356e-01
1.120000000000000107e+00 -2.446129950387693486e-01
1.130000000000000115e+00 -1.956816691119847296e-01
1.140000000000000124e+00 -1.375891833959016208e-01
1.150000000000000133e+00 -7.327620759624969837e-02
1.159999999999999920e+00 -5.510120905233888144e-03
1.169999999999999929e+00 6.263564140803601354e-02
1.179999999999999938e+00 1.284234317020741256e-01
1.189999999999999947e+00 1.883914112346868064e-01
1.199999999999999956e+00 2.410803047237334851e-01
1.209999999999999964e+00 2.824772960565769542e-01
1.219999999999999973e+00 3.128954653217570492e-01
1.229999999999999982e+00 3.291519617062346748e-01
1.239999999999999991e+00 3.322973543485062131e-01
1.250000000000000000e+00 3.210356092787170490e-01
1.260000000000000009e+00 2.967480035413976869e-01
1.270000000000000018e+00 2.602391963807076380e-01
1.280000000000000027e+00 2.131293397754214225e-01
1.290000000000000036e+00 1.578622998988284121e-01
1.300000000000000044e+00 9.644010663129588823e-02
1.310000000000000053e+00 3.196833552303712106e-02
1.320000000000000062e+00 -3.288835167355914912e-02
1.330000000000000071e+00 -9.551790503235013663e-02
1.340000000000000080e+00 -1.525569703070454863e-01
1.350000000000000089e+00 -2.024923325367134486e-01
1.360000000000000098e+00 -2.422220351021203699e-01
1.370000000000000107e+00 -2.709593827507582597e-01
1.380000000000000115e+00 -2.869193450994129146e-01
1.390000000000000124e+00 -2.897305284635235956e-01
1.400000000000000133e+00 -2.795111908812145662e-01
1.409999999999999920e+00 -2.561864379629928967e-01
1.419999999999999929e+00 -2.217550884735378092e-01
1.429999999999999938e+00 -1.765508194855892887e-01
1.439999999999999947e+00 -1.238368628949367833e-01
1.449999999999999956e+00 -6.465337435353787909e-02
1.459999999999999964e+00 -2.449374381969037819e-03
1.469999999999999973e+00 6.057473604855356103e-02
1.479999999999999982e+00 1.217505616792933509e-01
1.489999999999999991e+00 1.784158808171740773e-01
1.500000000000000000e+00 2.284757558595220117e-01
1.510000000000000009e+00 2.699037852863095388e-01
1.520000000000000018e+00 3.009167590588069929e-01
1.530000000000000027e+00 3.209703461864921170e-01
1.540000000000000036e+00 3.284524295292125529e-01
1.550000000000000044e+00 3.246685291974543697e-01
1.560000000000000053e+00 3.082364875919089142e-01
1.570000000000000062e+00 2.819696949956026488e-01
1.580000000000000071e+00 2.454014837069238564e-01
1.590000000000000080e+00 2.016961624329774438e-01
1.600000000000000089e+00 1.518827072437204662e-01
1.610000000000000098e+00 9.868640793038874204e-02
1.620000000000000107e+00 4.410511811956432937e-02
1.630000000000000115e+00 -9.466034164140275931e-03
1.640000000000000124e+00 -6.003101077731740065e-02
1.650000000000000133e+00 -1.053440824047340713e-01
1.660000000000000142e+00 -1.443183135354742519e-01
1.669999999999999929e+00 -1.747310730465765072e-01
1.679999999999999938e+00 -1.970041670744391848e-01
1.689999999999999947e+00 -2.089642168120449950e-01
1.699999999999999956e+00 -2.123834057696092903e-01
1.709999999999999964e+00 -2.062238052604412897e-01
1.719999999999999973e+00 -1.924659660416464801e-01
1.729999999999999982e+00 -1.715636298525613224e-01
1.739999999999999991e+00 -1.454712752898220940e-01
1.750000000000000000e+00 -1.157168931836556475e-01
1.760000000000000009e+00 -8.425399784306336626e-02
1.770000000000000018e+00 -5.292893572757158271e-02
1.780000000000000027e+00 -2.381506880959097933e-02
1.790000000000000036e+00 1.765102163181569983e-03
1.800000000000000044e+00 2.151048276605562609e-02
1.810000000000000053e+00 3.520259771277896299e-02
1.820000000000000062e+00 4.064661709271840534e-02
1.830000000000000071e+00 3.854714869108226416e-02
1.840000000000000080e+00 2.768969057458179478e-02
1.850000000000000089e+00 9.077322655496340015e-03
1.860000000000000098e+00 -1.718241484746783551e-02
1.870000000000000107e+00 -4.992836322060566906e-02
1.880000000000000115e+00 -8.793872919223943985e-02
1.890000000000000124e+00 -1.298815173922145960e-01
1.900000000000000133e+00 -1.739836827647353312e-01
1.910000000000000142e+00 -2.186272000425353856e-01
1.919999999999999929e+00 -2.622365143346245819e-01
1.929999999999999938e+00 -3.027779157543350474e-01
1.939999999999999947e+00 -3.394215198898386521e-01
1.949999999999999956e+00 -3.701891253661306891e-01
1.959999999999999964e+00 -3.948395094298580155e-01
1.969999999999999973e+00 -4.121129912268799433e-01
1.979999999999999982e+00 -4.221003289929083357e-01
1.989999999999999991e+00 -4.246386036066182590e-01
2.000000000000000000e+00 -4.200206575364165418e-01
2.010000000000000231e+00 -4.091693657882415347e-01
2.020000000000000018e+00 -3.925729962073558066e-01
2.030000000000000249e+00 -3.718740271195456470e-01
2.040000000000000036e+00 -3.478439132711066417e-01
2.049999999999999822e+00 -3.222367098586509937e-01
2.060000000000000053e+00 -2.962346190825925762e-01
2.069999999999999840e+00 -2.711407138841336883e-01
2.080000000000000071e+00 -2.482663740936436603e-01
2.089999999999999858e+00 -2.283934583821333186e-01
2.100000000000000089e+00 -2.124219502345287558e-01
2.109999999999999876e+00 -2.007363911155150560e-01
2.120000000000000107e+00 -1.934412030288634177e-01
2.129999999999999893e+00 -1.905769527719752554e-01
2.140000000000000124e+00 -1.913972171131069211e-01
2.149999999999999911e+00 -1.955501705853667782e-01
2.160000000000000142e+00 -2.017273664617409423e-01
2.169999999999999929e+00 -2.090535731056260838e-01
2.180000000000000160e+00 -2.161640310552417066e-01
2.189999999999999947e+00 -2.216483844387580893e-01
2.200000000000000178e+00 -2.244351325812613540e-01
2.209999999999999964e+00 -2.230547291345235661e-01
2.220000000000000195e+00 -2.166701128602086246e-01
2.229999999999999982e+00 -2.043553152192674749e-01
2.240000000000000213e+00 -1.854446192455183051e-01
2.250000000000000000e+00 -1.599815613957248084e-01
2.260000000000000231e+00 -1.274923018988107781e-01
2.270000000000000018e+00 -8.909560922543729999e-02
2.280000000000000249e+00 -4.465494011679692343e-02
2.290000000000000036e+00 3.951394934731817556e-03
2.300000000000000266e+00 5.612644714830848647e-02
2.310000000000000053e+00 1.098932775239346432e-01
2.319999999999999840e+00 1.637943467227431227e-01
2.330000000000000071e+00 2.160807621371968190e-01
2.339999999999999858e+00 2.649645503578497152e-01
2.350000000000000089e+00 3.087953342461129402e-01
2.359999999999999876e+00 3.462049998544106111e-01
2.370000000000000107e+00 3.755046409151633902e-01
2.379999999999999893e+00 3.963926906254842675e-01
2.390000000000000124e+00 4.070888435969054475e-01
2.399999999999999911e+00 4.087199055306296458e-01
2.410000000000000142e+00 3.995117709349213508e-01
2.419999999999999929e+00 3.817128162273844549e-01
2.430000000000000160e+00 3.546291442653429771e-01
2.439999999999999947e+00 3.204908750914099991e-01
2.450000000000000178e+00 2.799807317473412271e-01
2.459999999999999964e+00 2.351497408654533994e-01
2.470000000000000195e+00 1.875957020667221309e-01
2.479999999999999982e+00 1.392950899061695114e-01
2.490000000000000213e+00 9.201750452059698215e-02
2.500000000000000000e+00 4.783240558567377482e-02
2.510000000000000231e+00 7.894236641075746963e-03
2.520000000000000018e+00 -2.550273194710721975e-02
2.530000000000000249e+00 -5.233657028943567574e-02
2.540000000000000036e+00 -7.039940632326630032e-02
2.550000000000000266e+00 -8.056826016387511058e-02
2.560000000000000053e+00 -8.161812217603182928e-02
2.569999999999999840e+00 -7.464658379223523821e-02
2.580000000000000071e+00 -5.974681398221935724e-02
2.589999999999999858e+00 -3.811146094161765863e-02
2.600000000000000089e+00 -1.094342977482197325e-02
2.609999999999999876e+00 2.044230311443745104e-02
2.620000000000000107e+00 5.427692572046388664e-02
2.629999999999999893e+00 8.899415020733847381e-02
2.640000000000000124e+00 1.229836902632198137e-01
2.649999999999999911e+00 1.542831653730992736e-01
2.660000000000000142e+00 1.819918071200138376e-01
2.669999999999999929e+00 2.041553950385259220e-01
2.680000000000000160e+00 2.204745796032620275e-01
2.689999999999999947e+00 2.296561039057059272e-01
2.700000000000000178e+00 2.317414399305083583e-01
2.709999999999999964e+00 2.265022364297694102e-01
2.720000000000000195e+00 2.141960377229076007e-01
2.729999999999999982e+00 1.956871588741942170e-01
2.740000000000000213e+00 1.714557015455019373e-01
2.750000000000000000e+00 1.431292725964288248e-01
2.760000000000000231e+00 1.115264181993482484e-01
2.770000000000000018e+00 7.844696604155527997e-02
2.780000000000000249e+00 4.521476690365933138e-02
2.790000000000000036e+00 1.323803872167694969e-02
2.800000000000000266e+00 -1.591932306355578822e-02
2.810000000000000053e+00 -4.130235802293096697e-02
2.819999999999999840e+00 -6.168850960426628532e-02
2.830000000000000071e+00 -7.642041102928008589e-02
2.839999999999999858e+00 -8.509566843706180272e-02
2.850000000000000089e+00 -8.726111760041577181e-02
2.859999999999999876e+00 -8.351987842620653413e-02
2.870000000000000107e+00 -7.363713157909895779e-02
2.879999999999999893e+00 -5.906863166046892599e-02
2.890000000000000124e+00 -3.991931854082159115e-02
2.899999999999999911e+00 -1.799312764707132820e-02
2.910000000000000142e+00 5.911066233471321679e-03
2.919999999999999929e+00 3.027722217599383703e-02
2.930000000000000160e+00 5.385622665440768786e-02
2.939999999999999947e+00 7.541981119702698133e-02
2.950000000000000178e+00 9.383471396783765739e-02
2.959999999999999964e+00 1.080610232301849744e-01
2.970000000000000195e+00 1.175898295522497250e-01
2.979999999999999982e+00 1.215092567314792482e-01
2.990000000000000213e+00 1.202209895696365743e-01
3.000000000000000000e+00 1.129738505064632331e-01
3.010000000000000231e+00 1.010042006585560592e-01
3.020000000000000018e+00 8.403289812420525196e-02
3.030000000000000249e+00 6.361257796061203784e-02
3.040000000000000036e+00 4.027597521270583764e-02
3.050000000000000266e+00 1.544031464979725432e-02
3.060000000000000053e+00 -9.798756113728976369e-03
3.070000000000000284e+00 -3.412727348551081868e-02
3.080000000000000071e+00 -5.641718666611292288e-02
3.089999999999999858e+00 -7.537854957936830635e-02
3.100000000000000089e+00 -9.038116316673069917e-02
3.109999999999999876e+00 -1.001044995358089801e-01
3.120000000000000107e+00 -1.047931582288597618e-01
3.129999999999999893e+00 -1.031266910852891711e-01
3.140000000000000124e+00 -9.617007825911368102e-02
3.149999999999999911e+00 -8.324539139169825908e-02
3.160000000000000142e+00 -6.558843372577541353e-02
3.169999999999999929e+00 -4.344014994840040417e-02
3.180000000000000160e+00 -1.802917599214323013e-02
3.189999999999999947e+00 9.704370566325309921e-03
3.200000000000000178e+00 3.851698089327172669e-02
3.209999999999999964e+00 6.723102543260162101e-02
3.220000000000000195e+00 9.450611504965102105e-02
3.229999999999999982e+00 1.194649344310530076e-01
3.240000000000000213e+00 1.405944107100952911e-01
3.250000000000000000e+00 1.577190508828815174e-01
3.260000000000000231e+00 1.693294096596460185e-01
3.270000000000000018e+00 1.758788125546247305e-01
3.280000000000000249e+00 1.764680788233096709e-01
3.290000000000000036e+00 1.717439794263129205e-01
3.300000000000000266e+00 1.616840502476657171e-01
3.310000000000000053e+00 1.470334476719146743e-01
3.320000000000000284e+00 1.285427660159694230e-01
3.330000000000000071e+00 1.070601903240499808e-01
3.339999999999999858e+00 8.376047154294607999e-02
3.350000000000000089e+00 5.966924203801997340e-02
3.359999999999999876e+00 3.589541893008995482e-02
3.370000000000000107e+00 1.372931369567076398e-02
3.379999999999999893e+00 -6.180935058737175962e-03
3.390000000000000124e+00 -2.253465052661606655e-02
3.399999999999999911e+00 -3.511376256995565881e-02
3.410000000000000142e+00 -4.305536534626915740e-02
3.419999999999999929e+00 -4.639935850143497853e-02
3.430000000000000160e+00 -4.500395824541546241e-02
3.439999999999999947e+00 -3.908644440384137497e-02
3.450000000000000178e+00 -2.924248241664692549e-02
3.459999999999999964e+00 -1.587289197231378512e-02
3.470000000000000195e+00 -7.274825892843866937e-05
3.479999999999999982e+00 1.749654296165120346e-02
3.490000000000000213e+00 3.565747326613298573e-02
3.500000000000000000e+00 5.339986595258092855e-02
3.510000000000000231e+00 6.983877947365289829e-02
3.520000000000000018e+00 8.384751163466740154e-02
3.530000000000000249e+00 9.485646831338485907e-02
3.540000000000000036e+00 1.020438617525284558e-01
3.550000000000000266e+00 1.050580776539070671e-01
3.560000000000000053e+00 1.037059789109333885e-01
3.570000000000000284e+00 9.780660369818534872e-02
3.580000000000000071e+00 8.789341234627046084e-02
3.589999999999999858e+00 7.398904504196876508e-02
3.600000000000000089e+00 5.719678912097009293e-02
3.609999999999999876e+00 3.785169350775328956e-02
3.620000000000000107e+00 1.724152490594686726e-02
3.629999999999999893e+00 -3.801594595355268710e-03
3.640000000000000124e+00 -2.420853070800738430e-02
3.649999999999999911e+00 -4.289317629969981172e-02
3.660000000000000142e+00 -5.898453189410924474e-02
3.669999999999999929e+00 -7.159372987156945034e-02
3.680000000000000160e+00 -7.996608235799021469e-02
3.689999999999999947e+00 -8.379640116779256409e-02
3.700000000000000178e+00 -8.240506388344778776e-02
3.709999999999999964e+00 -7.626776942007432170e-02
3.720000000000000195e+00 -6.481880841083527411e-02
3.729999999999999982e+00 -4.921840106260409048e-02
3.740000000000000213e+00 -2.927451927248330213e-02
3.750000000000000000e+00 -6.380077058801800725e-03
3.760000000000000231e+00 1.898409479331282165e-02
3.770000000000000018e+00 4.558847415340046283e-02
3.780000000000000249e+00 7.249442461503537161e-02
3.790000000000000036e+00 9.859248272491660803e-02
3.800000000000000266e+00 1.229353914373745443e-01
3.810000000000000053e+00 1.444561123147521386e-01
3.820000000000000284e+00 1.626360092889855558e-01
3.830000000000000071e+00 1.763971191245337911e-01
3.839999999999999858e+00 1.859519610957650060e-01
3.850000000000000089e+00 1.902305814076432344e-01
3.859999999999999876e+00 1.901257913555631784e-01
