# [DEFAULT]
# # input and output specifications
# dataformat = QA
# outputtype = gr
# 
# # PDF calculation setup
# mode = xray
# wavelength = 
# composition = Cl4.0Cr1.0Na1.0
# bgscale = 1.0
# rpoly = 0.9
# qmaxinst = 28
# qmin = 0.0
# qmax = 22
# rmin = 0.0
# rmax = 30.0
# rstep = 0.01
# 
# # End of config --------------------------------------------------------------
# 
# #### start data
# #S 1
# #L r(Å)  G(Å$^$)
# 
0.000000000000000000e+00 0.000000000000000000e+00
1.000000000000000021e-02 -3.330461947106496366e-03
2.000000000000000042e-02 -6.762756785238742060e-03
2.999999999999999889e-02 -1.040832870647429714e-02
4.000000000000000083e-02 -1.429901419704553839e-02
5.000000000000000278e-02 -1.846624416146123299e-02
5.999999999999999778e-02 -2.284648411208993479e-02
7.000000000000000666e-02 -2.733849050729281194e-02
8.000000000000000167e-02 -3.175935765238804831e-02
8.999999999999999667e-02 -3.590227388721010243e-02
1.000000000000000056e-01 -3.943904198206159284e-02
1.100000000000000006e-01 -4.216789935662492578e-02
1.199999999999999956e-01 -4.359798889437562636e-02
1.300000000000000044e-01 -4.366395677274238774e-02
1.400000000000000133e-01 -4.181727220376905280e-02
1.499999999999999944e-01 -3.814157608139319422e-02
1.600000000000000033e-01 -3.227692045277538724e-02
1.700000000000000122e-01 -2.439293396135242334e-02
1.799999999999999933e-01 -1.448096846131536122e-02
1.900000000000000022e-01 -2.821516735819888568e-03
2.000000000000000111e-01 1.021880639137104710e-02
2.099999999999999922e-01 2.418695806762378650e-02
2.200000000000000011e-01 3.846908032052016174e-02
2.300000000000000100e-01 5.234773195093776754e-02
2.399999999999999911e-01 6.523022988259030708e-02
2.500000000000000000e-01 7.604263064213753753e-02
2.600000000000000089e-01 8.444697258487671165e-02
2.700000000000000178e-01 8.931105140790515651e-02
2.800000000000000266e-01 9.046128950266937863e-02
2.899999999999999800e-01 8.710501271811263435e-02
2.999999999999999889e-01 7.919137089251612749e-02
3.099999999999999978e-01 6.656804035650247531e-02
3.200000000000000067e-01 4.932619598578424913e-02
3.300000000000000155e-01 2.806293185874953952e-02
3.400000000000000244e-01 3.119963894675989446e-03
3.500000000000000333e-01 -2.430621646350720338e-02
3.599999999999999867e-01 -5.342615565681629181e-02
3.699999999999999956e-01 -8.283960632878141495e-02
3.800000000000000044e-01 -1.111144252008693101e-01
3.900000000000000133e-01 -1.370342218065194739e-01
4.000000000000000222e-01 -1.588180506847647611e-01
4.100000000000000311e-01 -1.754136704004198855e-01
4.199999999999999845e-01 -1.853057856413286852e-01
4.299999999999999933e-01 -1.874938343891291437e-01
4.400000000000000022e-01 -1.813370471278208940e-01
4.500000000000000111e-01 -1.658490708518244316e-01
4.600000000000000200e-01 -1.416590854730905569e-01
4.700000000000000289e-01 -1.079042505748576269e-01
4.799999999999999822e-01 -6.651983707605148288e-02
4.899999999999999911e-01 -1.705770739124157914e-02
5.000000000000000000e-01 3.778352564140158298e-02
5.100000000000000089e-01 9.714060395827851802e-02
5.200000000000000178e-01 1.585112881829283116e-01
5.300000000000000266e-01 2.198815171490126619e-01
5.400000000000000355e-01 2.788225128322805446e-01
5.500000000000000444e-01 3.330007930941023542e-01
5.600000000000000533e-01 3.798293084778796569e-01
5.700000000000000622e-01 4.176488433365215802e-01
5.799999999999999600e-01 4.435079498061413328e-01
5.899999999999999689e-01 4.573241800267641710e-01
5.999999999999999778e-01 4.557275224126248747e-01
6.099999999999999867e-01 4.405251203964847262e-01
6.199999999999999956e-01 4.088774604080945285e-01
6.300000000000000044e-01 3.635416570392367985e-01
6.400000000000000133e-01 3.036175013988766658e-01
6.500000000000000222e-01 2.318232943777932820e-01
6.600000000000000311e-01 1.493957606724110876e-01
6.700000000000000400e-01 5.907399728244377285e-02
6.800000000000000488e-01 -3.642842189745863074e-02
6.900000000000000577e-01 -1.340747433808374411e-01
7.000000000000000666e-01 -2.307909438931469437e-01
7.099999999999999645e-01 -3.228578022559733807e-01
7.199999999999999734e-01 -4.081637966708254184e-01
7.299999999999999822e-01 -4.819711181761596186e-01
7.399999999999999911e-01 -5.438341600852817370e-01
7.500000000000000000e-01 -5.894129811078074876e-01
7.600000000000000089e-01 -6.189783531628491042e-01
7.700000000000000178e-01 -6.299537154308342268e-01
7.800000000000000266e-01 -6.228929673968479630e-01
7.900000000000000355e-01 -5.976545221905695815e-01
8.000000000000000444e-01 -5.549333690153441800e-01
8.100000000000000533e-01 -4.969948545453765631e-01
8.200000000000000622e-01 -4.248274790974658766e-01
8.300000000000000711e-01 -3.423852415090591350e-01
8.399999999999999689e-01 -2.513482736099127979e-01
8.499999999999999778e-01 -1.560838886008323600e-01
8.599999999999999867e-01 -5.953698012312957921e-02
8.699999999999999956e-01 3.476289125705510352e-02
8.800000000000000044e-01 1.231005823218662698e-01
8.900000000000000133e-01 2.028432667869142225e-01
9.000000000000000222e-01 2.708243499447702818e-01
9.100000000000000311e-01 3.248901862886736103e-01
9.200000000000000400e-01 3.636365485959271449e-01
9.300000000000000488e-01 3.851165217251725781e-01
9.400000000000000577e-01 3.903564077877828553e-01
9.500000000000000666e-01 3.776087528450842168e-01
9.599999999999999645e-01 3.502866702781096686e-01
9.699999999999999734e-01 3.071348580421299213e-01
9.799999999999999822e-01 2.528660961456102307e-01
9.899999999999999911e-01 1.882309981767788243e-01
1.000000000000000000e+00 1.173356092624372876e-01
1.010000000000000009e+00 4.271606091072820827e-02
1.020000000000000018e+00 -3.206937325424948776e-02
1.030000000000000027e+00 -1.039555070827969524e-01
1.040000000000000036e+00 -1.696439158275314663e-01
1.050000000000000044e+00 -2.268984113827661186e-01
1.060000000000000053e+00 -2.724113982967742431e-01
1.070000000000000062e+00 -3.058617484375615869e-01
1.080000000000000071e+00 -3.238436119349486497e-01
1.090000000000000080e+00 -3.282485350866314322e-01
1.100000000000000089e+00 -3.164658507032103718e-01
1.110000000000000098e+00 -2.915247390820885909e-01
1.120000000000000107e+00 -2.529230457330977622e-01
1.130000000000000115e+00 -2.036677435676607639e-01
1.140000000000000124e+00 -1.453434578031200242e-01
1.150000000000000133e+00 -8.090375681624294157e-02
1.159999999999999920e+00 -1.312370681681997858e-02
1.169999999999999929e+00 5.491219462708607502e-02
1.179999999999999938e+00 1.204759874228615579e-01
1.189999999999999947e+00 1.800964240353712664e-01
1.199999999999999956e+00 2.323396873239341187e-01
1.209999999999999964e+00 2.731872300534113895e-01
1.219999999999999973e+00 3.029852486500294595e-01
1.229999999999999982e+00 3.185584501679067926e-01
1.239999999999999991e+00 3.209856873275211409e-01
1.250000000000000000e+00 3.089897875033583707e-01
1.260000000000000009e+00 2.839764115059148497e-01
1.270000000000000018e+00 2.467717865665880750e-01
1.280000000000000027e+00 1.990191429858096384e-01
1.290000000000000036e+00 1.431776250204964129e-01
1.300000000000000044e+00 8.127353681476863489e-02
1.310000000000000053e+00 1.641427404581262406e-02
1.320000000000000062e+00 -4.870864612935627003e-02
1.330000000000000071e+00 -1.114967497720224104e-01
1.340000000000000080e+00 -1.685631445793557004e-01
1.350000000000000089e+00 -2.184155700093500796e-01
1.360000000000000098e+00 -2.579422224688018295e-01
1.370000000000000107e+00 -2.863754980431291730e-01
1.380000000000000115e+00 -3.019354906515189230e-01
1.390000000000000124e+00 -3.042674104968218218e-01
1.400000000000000133e+00 -2.935051258260958917e-01
1.409999999999999920e+00 -2.695887558935756712e-01
1.419999999999999929e+00 -2.345365335230693571e-01
1.429999999999999938e+00 -1.886971901273355456e-01
1.439999999999999947e+00 -1.353500375152783264e-01
1.449999999999999956e+00 -7.555175561739738144e-02
1.459999999999999964e+00 -1.275953379007882353e-02
1.469999999999999973e+00 5.081158986611539197e-02
1.479999999999999982e+00 1.124914772537928820e-01
1.489999999999999991e+00 1.696100480942226152e-01
1.500000000000000000e+00 2.200745703742525983e-01
1.510000000000000009e+00 2.618598483162884460e-01
1.520000000000000018e+00 2.931877232455495919e-01
1.530000000000000027e+00 3.135230156787418565e-01
1.540000000000000036e+00 3.212616850446226580e-01
1.550000000000000044e+00 3.177223615816529567e-01
1.560000000000000053e+00 3.015350439881891997e-01
1.570000000000000062e+00 2.755248654863186597e-01
1.580000000000000071e+00 2.392414556054242858e-01
1.590000000000000080e+00 1.958563997288212954e-01
1.600000000000000089e+00 1.464143348352940355e-01
1.610000000000000098e+00 9.364481009566030800e-02
1.620000000000000107e+00 3.955521538476929055e-02
1.630000000000000115e+00 -1.345690412044349936e-02
1.640000000000000124e+00 -6.339555011117442573e-02
1.650000000000000133e+00 -1.080141741831359137e-01
1.660000000000000142e+00 -1.462359258520611049e-01
1.669999999999999929e+00 -1.758399702208885695e-01
1.679999999999999938e+00 -1.972654698202525037e-01
1.689999999999999947e+00 -2.083456267456135769e-01
1.699999999999999956e+00 -2.108717335394108550e-01
1.709999999999999964e+00 -2.038199924007373931e-01
1.719999999999999973e+00 -1.891868569367631536e-01
1.729999999999999982e+00 -1.674438596305941329e-01
1.739999999999999991e+00 -1.405594726576794573e-01
1.750000000000000000e+00 -1.100763607264465815e-01
1.760000000000000009e+00 -7.796180221666583476e-02
1.770000000000000018e+00 -4.606761277333218385e-02
1.780000000000000027e+00 -1.648161698507887712e-02
1.790000000000000036e+00 9.481198065729230795e-03
1.800000000000000044e+00 2.950509647474051922e-02
1.810000000000000053e+00 4.339124130026234677e-02
1.820000000000000062e+00 4.893599540768930889e-02
1.830000000000000071e+00 4.686795155372246863e-02
1.840000000000000080e+00 3.597671348556440163e-02
1.850000000000000089e+00 1.728740503820484081e-02
1.860000000000000098e+00 -9.077276066556541970e-03
1.870000000000000107e+00 -4.193473391752494672e-02
1.880000000000000115e+00 -8.004372177155288925e-02
1.890000000000000124e+00 -1.220490654771939770e-01
1.900000000000000133e+00 -1.661621720189679907e-01
1.910000000000000142e+00 -2.107376882180760358e-01
1.919999999999999929e+00 -2.541962579330060423e-01
1.929999999999999938e+00 -2.944712911865503546e-01
1.939999999999999947e+00 -3.307425999239005932e-01
1.949999999999999956e+00 -3.610058182400763260e-01
1.959999999999999964e+00 -3.850325845621346277e-01
1.969999999999999973e+00 -4.015525255584652675e-01
1.979999999999999982e+00 -4.106695797777801249e-01
1.989999999999999991e+00 -4.122274248725327217e-01
2.000000000000000000e+00 -4.065328022588871604e-01
2.010000000000000231e+00 -3.945294714699063010e-01
2.020000000000000018e+00 -3.767229312820216669e-01
2.030000000000000249e+00 -3.547837695707366512e-01
2.040000000000000036e+00 -3.295083316984189770e-01
2.049999999999999822e+00 -3.026767549522241807e-01
2.060000000000000053e+00 -2.755067483312479415e-01
2.069999999999999840e+00 -2.493202153668747367e-01
2.080000000000000071e+00 -2.254672612943503240e-01
2.089999999999999858e+00 -2.047456855522886698e-01
2.100000000000000089e+00 -1.880865440627089991e-01
2.109999999999999876e+00 -1.758919994979310508e-01
2.120000000000000107e+00 -1.682804643875106532e-01
2.129999999999999893e+00 -1.653151212580870888e-01
2.140000000000000124e+00 -1.662402554114623121e-01
2.149999999999999911e+00 -1.707327595565255873e-01
2.160000000000000142e+00 -1.774498115818107513e-01
2.169999999999999929e+00 -1.855493639287810193e-01
2.180000000000000160e+00 -1.936160915532437188e-01
2.189999999999999947e+00 -2.002553985334739328e-01
2.200000000000000178e+00 -2.043520658439947624e-01
2.209999999999999964e+00 -2.044286198647773667e-01
2.220000000000000195e+00 -1.996119391888164785e-01
2.229999999999999982e+00 -1.889509381882417405e-01
2.240000000000000213e+00 -1.717475466912350146e-01
2.250000000000000000e+00 -1.480132231172099910e-01
2.260000000000000231e+00 -1.172400914696789392e-01
2.270000000000000018e+00 -8.051940892485215384e-02
2.280000000000000249e+00 -3.767323290519269952e-02
2.290000000000000036e+00 9.433787191164147781e-03
2.300000000000000266e+00 6.025290779183502254e-02
2.310000000000000053e+00 1.128083462866982106e-01
2.319999999999999840e+00 1.656837687517102864e-01
2.330000000000000071e+00 2.171301582594555579e-01
2.339999999999999858e+00 2.653833150817431208e-01
2.350000000000000089e+00 3.087959586279461766e-01
2.359999999999999876e+00 3.460011636413353187e-01
2.370000000000000107e+00 3.753183247763214880e-01
2.379999999999999893e+00 3.964235475734341763e-01
2.390000000000000124e+00 4.075491821313655949e-01
2.399999999999999911e+00 4.097795378118814225e-01
2.410000000000000142e+00 4.013539269168878154e-01
2.419999999999999929e+00 3.844689870381723940e-01
2.430000000000000160e+00 3.584279336893789747e-01
2.439999999999999947e+00 3.254181221133934376e-01
2.450000000000000178e+00 2.861015017210279399e-01
2.459999999999999964e+00 2.424932989363609293e-01
2.470000000000000195e+00 1.961615074811233206e-01
2.479999999999999982e+00 1.490481717896675051e-01
2.490000000000000213e+00 1.028949581655048406e-01
2.500000000000000000e+00 5.973222302174034659e-02
2.510000000000000231e+00 2.069919471204363995e-02
2.520000000000000018e+00 -1.195900747207501516e-02
2.530000000000000249e+00 -3.821620707180426596e-02
2.540000000000000036e+00 -5.591952756153058257e-02
2.550000000000000266e+00 -6.592939101048435335e-02
2.560000000000000053e+00 -6.706259296904358569e-02
2.569999999999999840e+00 -6.040327765407567384e-02
2.580000000000000071e+00 -4.606305756160913173e-02
2.589999999999999858e+00 -2.522716611760789096e-02
2.600000000000000089e+00 9.090836607512781109e-04
2.609999999999999876e+00 3.103215281965929911e-02
2.620000000000000107e+00 6.340493947459309443e-02
2.629999999999999893e+00 9.645967069979291542e-02
2.640000000000000124e+00 1.286354386213441059e-01
2.649999999999999911e+00 1.579711274439007940e-01
2.660000000000000142e+00 1.836204444630546995e-01
2.669999999999999929e+00 2.036473660926472196e-01
2.680000000000000160e+00 2.177966490385290221e-01
2.689999999999999947e+00 2.248077705005976645e-01
2.700000000000000178e+00 2.247597068478416893e-01
2.709999999999999964e+00 2.174594144174867572e-01
2.720000000000000195e+00 2.032017266553766133e-01
2.729999999999999982e+00 1.828760023412006608e-01
2.740000000000000213e+00 1.570052239458485932e-01
2.750000000000000000e+00 1.272206938565282053e-01
2.760000000000000231e+00 9.439340481174571251e-02
2.770000000000000018e+00 6.030113025254448672e-02
2.780000000000000249e+00 2.632160336357713265e-02
2.790000000000000036e+00 -6.172290881863860129e-03
2.800000000000000266e+00 -3.558375956660370792e-02
2.810000000000000053e+00 -6.098752029609268155e-02
2.819999999999999840e+00 -8.115633615025320824e-02
2.830000000000000071e+00 -9.545553837429526789e-02
2.839999999999999858e+00 -1.035031864822574671e-01
2.850000000000000089e+00 -1.048634265439340185e-01
2.859999999999999876e+00 -1.001771607221954991e-01
2.870000000000000107e+00 -8.922526399329756830e-02
2.879999999999999893e+00 -7.350763018556273620e-02
2.890000000000000124e+00 -5.314806552143993418e-02
2.899999999999999911e+00 -2.998905108463794170e-02
2.910000000000000142e+00 -4.855703205025001593e-03
2.919999999999999929e+00 2.071027632124144632e-02
2.930000000000000160e+00 4.543318909922304527e-02
2.939999999999999947e+00 6.806750756032575733e-02
2.950000000000000178e+00 8.746256143071648448e-02
2.959999999999999964e+00 1.025653395468748286e-01
2.970000000000000195e+00 1.128646538484208844e-01
2.979999999999999982e+00 1.174373116083531482e-01
2.990000000000000213e+00 1.166990786541891034e-01
3.000000000000000000e+00 1.098889426735263630e-01
3.010000000000000231e+00 9.826931089870107050e-02
3.020000000000000018e+00 8.155713859679415700e-02
3.030000000000000249e+00 6.133262108068737728e-02
3.040000000000000036e+00 3.813521555190670098e-02
3.050000000000000266e+00 1.340343597751182322e-02
3.060000000000000053e+00 -1.175421187023487080e-02
3.070000000000000284e+00 -3.600815631487599977e-02
3.080000000000000071e+00 -5.821872465454289852e-02
3.089999999999999858e+00 -7.708534417485435331e-02
3.100000000000000089e+00 -9.197309609018383680e-02
3.109999999999999876e+00 -1.015560034542727086e-01
3.120000000000000107e+00 -1.060830481175234485e-01
3.129999999999999893e+00 -1.042351911261041458e-01
3.140000000000000124e+00 -9.708878777433191387e-02
3.149999999999999911e+00 -8.397714781834536568e-02
3.160000000000000142e+00 -6.615030629618207092e-02
3.169999999999999929e+00 -4.386805935052096039e-02
3.180000000000000160e+00 -1.837577130355626948e-02
3.189999999999999947e+00 9.366789673303708291e-03
3.200000000000000178e+00 3.809603414747937677e-02
3.209999999999999964e+00 6.662247324280695659e-02
3.220000000000000195e+00 9.358164872680037327e-02
3.229999999999999982e+00 1.180999366199053519e-01
3.240000000000000213e+00 1.386370674843994399e-01
3.250000000000000000e+00 1.550395176998655422e-01
3.260000000000000231e+00 1.657759038687806608e-01
3.270000000000000018e+00 1.713316826223325595e-01
3.280000000000000249e+00 1.708055613694630936e-01
3.290000000000000036e+00 1.648761670350695208e-01
3.300000000000000266e+00 1.535400461624309987e-01
3.310000000000000053e+00 1.375758736190357268e-01
3.320000000000000284e+00 1.177662673530193299e-01
3.330000000000000071e+00 9.499872578970475212e-02
3.339999999999999858e+00 7.048012214726334657e-02
3.350000000000000089e+00 4.528634645494405281e-02
3.359999999999999876e+00 2.054337854079854933e-02
3.370000000000000107e+00 -2.392833317235902070e-03
3.379999999999999893e+00 -2.287928315204938376e-02
3.390000000000000124e+00 -3.955328481477971003e-02
3.399999999999999911e+00 -5.220930462356421914e-02
3.410000000000000142e+00 -5.994597330965598797e-02
3.419999999999999929e+00 -6.281526314781754605e-02
3.430000000000000160e+00 -6.066998850785427361e-02
3.439999999999999947e+00 -5.373759171292915443e-02
3.450000000000000178e+00 -4.264192656404833942e-02
3.459999999999999964e+00 -2.779452700974019419e-02
3.470000000000000195e+00 -1.034433289008347689e-02
3.479999999999999982e+00 9.029968903655835252e-03
3.490000000000000213e+00 2.908707754225508049e-02
3.500000000000000000e+00 4.878292987265608199e-02
3.510000000000000231e+00 6.717705791270595084e-02
3.520000000000000018e+00 8.309300678244065097e-02
3.530000000000000249e+00 9.591812585365011579e-02
3.540000000000000036e+00 1.047811972457456942e-01
3.550000000000000266e+00 1.092931519332603491e-01
3.560000000000000053e+00 1.092300025106248684e-01
3.570000000000000284e+00 1.043733504657961136e-01
3.580000000000000071e+00 9.525745047625719386e-02
3.589999999999999858e+00 8.186510505642508040e-02
3.600000000000000089e+00 6.533705518158121339e-02
3.609999999999999876e+00 4.596789084405108333e-02
3.620000000000000107e+00 2.510874931978961111e-02
3.629999999999999893e+00 3.576014641809037095e-03
3.640000000000000124e+00 -1.750153274135893625e-02
3.649999999999999911e+00 -3.702148819301773197e-02
3.660000000000000142e+00 -5.406183273797883493e-02
3.669999999999999929e+00 -6.769668194256653337e-02
3.680000000000000160e+00 -7.712564303202688876e-02
3.689999999999999947e+00 -8.200288898526143788e-02
3.700000000000000178e+00 -8.160380702678428355e-02
3.709999999999999964e+00 -7.637691409802883913e-02
3.720000000000000195e+00 -6.570855218233803696e-02
3.729999999999999982e+00 -5.075638728805668271e-02
3.740000000000000213e+00 -3.128205684944185966e-02
3.750000000000000000e+00 -8.696288455018498509e-03
3.760000000000000231e+00 1.654631449282422881e-02
3.770000000000000018e+00 4.319336284860548353e-02
3.780000000000000249e+00 7.030526416768584363e-02
3.790000000000000036e+00 9.674775016086741009e-02
3.800000000000000266e+00 1.215497012226413043e-01
3.810000000000000053e+00 1.436171147511034474e-01
3.820000000000000284e+00 1.623956786208591851e-01
3.830000000000000071e+00 1.767759187060209403e-01
3.839999999999999858e+00 1.869376048103881249e-01
3.850000000000000089e+00 1.917720481669842048e-01
3.859999999999999876e+00 1.921537726439879190e-01
