# [DEFAULT]
# # input and output specifications
# dataformat = QA
# outputtype = gr
# 
# # PDF calculation setup
# mode = xray
# wavelength = 
# composition = Cl4.0Cr1.0Na1.0
# bgscale = 1.0
# rpoly = 0.9
# qmaxinst = 28
# qmin = 0.0
# qmax = 22
# rmin = 0.0
# rmax = 30.0
# rstep = 0.01
# 
# # End of config --------------------------------------------------------------
# 
# #### start data
# #S 1
# #L r(Å)  G(Å$^$)
# 
0.000000000000000000e+00 0.000000000000000000e+00
1.000000000000000021e-02 -4.181224698380461846e-03
2.000000000000000042e-02 -8.400131350939503069e-03
2.999999999999999889e-02 -1.269092144196752939e-02
4.000000000000000083e-02 -1.704733609344955339e-02
5.000000000000000278e-02 -2.144238867544544930e-02
5.999999999999999778e-02 -2.579708502568550318e-02
7.000000000000000666e-02 -2.999705294588085255e-02
8.000000000000000167e-02 -3.386507795419699263e-02
8.999999999999999667e-02 -3.723346809439085497e-02
1.000000000000000056e-01 -3.980379515983582805e-02
1.100000000000000006e-01 -4.144997887605455372e-02
1.199999999999999956e-01 -4.174159421183104568e-02
1.300000000000000044e-01 -4.069331685648144153e-02
1.400000000000000133e-01 -3.784855352002679946e-02
1.499999999999999944e-01 -3.334863295018060392e-02
1.600000000000000033e-01 -2.692695950640023456e-02
1.700000000000000122e-01 -1.878818859843605499e-02
1.799999999999999933e-01 -8.978935031979971143e-03
1.900000000000000022e-01 2.206007748658454955e-03
2.000000000000000111e-01 1.440891895563507080e-02
2.099999999999999922e-01 2.718632720833681279e-02
2.200000000000000011e-01 3.999881095545319842e-02
2.300000000000000100e-01 5.217244338249495128e-02
2.399999999999999911e-01 6.322805229377018166e-02
2.500000000000000000e-01 7.218394838809563674e-02
2.600000000000000089e-01 7.881276006423100500e-02
2.700000000000000178e-01 8.211622023396289438e-02
2.800000000000000266e-01 8.200589330808383259e-02
2.899999999999999800e-01 7.781687518403827830e-02
2.999999999999999889e-01 6.956228233586397858e-02
3.099999999999999978e-01 5.715636778333543777e-02
3.200000000000000067e-01 4.073360208797941612e-02
3.300000000000000155e-01 2.086061891332205084e-02
3.400000000000000244e-01 -2.108039131239154880e-03
3.500000000000000333e-01 -2.710533223935106262e-02
3.599999999999999867e-01 -5.338233867546323536e-02
3.699999999999999956e-01 -7.972750549528873076e-02
3.800000000000000044e-01 -1.048403809422492339e-01
3.900000000000000133e-01 -1.276916239530372921e-01
4.000000000000000222e-01 -1.467075670438904578e-01
4.100000000000000311e-01 -1.610070073986947792e-01
4.199999999999999845e-01 -1.692830701018395445e-01
4.299999999999999933e-01 -1.707018450513842489e-01
4.400000000000000022e-01 -1.647435662651749455e-01
4.500000000000000111e-01 -1.505894896870051403e-01
4.600000000000000200e-01 -1.288330964977795756e-01
4.700000000000000289e-01 -9.876765520294382428e-02
4.799999999999999822e-01 -6.211045412770098417e-02
4.899999999999999911e-01 -1.852004605257685788e-02
5.000000000000000000e-01 2.964749160180636320e-02
5.100000000000000089e-01 8.160640932953835969e-02
5.200000000000000178e-01 1.351907603599420693e-01
5.300000000000000266e-01 1.886439954892044635e-01
5.400000000000000355e-01 2.398811812739351235e-01
5.500000000000000444e-01 2.869021922834071869e-01
5.600000000000000533e-01 3.275043060787606319e-01
5.700000000000000622e-01 3.602975680935471270e-01
5.799999999999999600e-01 3.827895866262839841e-01
5.899999999999999689e-01 3.949616972048256014e-01
5.999999999999999778e-01 3.939945281573525859e-01
6.099999999999999867e-01 3.814870602586106774e-01
6.199999999999999956e-01 3.551069841749691092e-01
6.300000000000000044e-01 3.172541527140956275e-01
6.400000000000000133e-01 2.672622375896571700e-01
6.500000000000000222e-01 2.074935738190104573e-01
6.600000000000000311e-01 1.390822145014438960e-01
6.700000000000000400e-01 6.440846879806028102e-02
6.800000000000000488e-01 -1.418752949537110258e-02
6.900000000000000577e-01 -9.407151456588311311e-02
7.000000000000000666e-01 -1.726684832420665172e-01
7.099999999999999645e-01 -2.467711726184760590e-01
7.199999999999999734e-01 -3.146970039255803098e-01
7.299999999999999822e-01 -3.723994762760823862e-01
7.399999999999999911e-01 -4.196570799391668993e-01
7.500000000000000000e-01 -4.528413290948157255e-01
7.600000000000000089e-01 -4.723334663886732399e-01
7.700000000000000178e-01 -4.760766521529410933e-01
7.800000000000000266e-01 -4.646975271526045392e-01
7.900000000000000355e-01 -4.382336474812311145e-01
8.000000000000000444e-01 -3.974558563071751149e-01
8.100000000000000533e-01 -3.444101233214733604e-01
8.200000000000000622e-01 -2.801611892791706082e-01
8.300000000000000711e-01 -2.080902090230286883e-01
8.399999999999999689e-01 -1.299070793104231680e-01
8.499999999999999778e-01 -4.921553534771717225e-02
8.599999999999999867e-01 3.120447625666855976e-02
8.699999999999999956e-01 1.085260257167338510e-01
8.800000000000000044e-01 1.794368085354841602e-01
8.900000000000000133e-01 2.418564422253353940e-01
9.000000000000000222e-01 2.931000859990404162e-01
9.100000000000000311e-01 3.314780935344294743e-01
9.200000000000000400e-01 3.559455607920601339e-01
9.300000000000000488e-01 3.649883003634685208e-01
9.400000000000000577e-01 3.597151170023019651e-01
9.500000000000000666e-01 3.388105906935701683e-01
9.599999999999999645e-01 3.054205992587716856e-01
9.699999999999999734e-01 2.587119909116158412e-01
9.799999999999999822e-01 2.028724716185943411e-01
9.899999999999999911e-01 1.388128241018184716e-01
1.000000000000000000e+00 7.014104861334162500e-02
1.010000000000000009e+00 -7.549756875872837281e-04
1.020000000000000018e+00 -7.076260702779768597e-02
1.030000000000000027e+00 -1.371593275174891047e-01
1.040000000000000036e+00 -1.970600753446865583e-01
1.050000000000000044e+00 -2.486042253017949066e-01
1.060000000000000053e+00 -2.889001356740490967e-01
1.070000000000000062e+00 -3.178730269736702585e-01
1.080000000000000071e+00 -3.325633766291744564e-01
1.090000000000000080e+00 -3.348818518006483336e-01
1.100000000000000089e+00 -3.226271144656438494e-01
1.110000000000000098e+00 -2.986747433716055444e-01
1.120000000000000107e+00 -2.627355610031275601e-01
1.130000000000000115e+00 -2.176130027561667679e-01
1.140000000000000124e+00 -1.648547229831276717e-01
1.150000000000000133e+00 -1.071874191964654610e-01
1.159999999999999920e+00 -4.714634559750778553e-02
1.169999999999999929e+00 1.243840496286452262e-02
1.179999999999999938e+00 6.917300686072430649e-02
1.189999999999999947e+00 1.198922730313322638e-01
1.199999999999999956e+00 1.634523759281265864e-01
1.209999999999999964e+00 1.962196380691711983e-01
1.219999999999999973e+00 2.186896090241222390e-01
1.229999999999999982e+00 2.280596392068945377e-01
1.239999999999999991e+00 2.254555198201453059e-01
1.250000000000000000e+00 2.098395309407008746e-01
1.260000000000000009e+00 1.826090370127753104e-01
1.270000000000000018e+00 1.446267556545101640e-01
1.280000000000000027e+00 9.749641525306973477e-02
1.290000000000000036e+00 4.350875837241998528e-02
1.300000000000000044e+00 -1.538128212252550669e-02
1.310000000000000053e+00 -7.637814716965483919e-02
1.320000000000000062e+00 -1.369147276215452180e-01
1.330000000000000071e+00 -1.947392122956054517e-01
1.340000000000000080e+00 -2.466793144208362931e-01
1.350000000000000089e+00 -2.915171460302380946e-01
1.360000000000000098e+00 -3.264058566264222971e-01
1.370000000000000107e+00 -3.507674989545129240e-01
1.380000000000000115e+00 -3.630372143678163299e-01
1.390000000000000124e+00 -3.629956693970384785e-01
1.400000000000000133e+00 -3.508575321331447450e-01
1.409999999999999920e+00 -3.266645228331281903e-01
1.419999999999999929e+00 -2.923462351131317916e-01
1.429999999999999938e+00 -2.483213860398139072e-01
1.439999999999999947e+00 -1.976319079257107814e-01
1.449999999999999956e+00 -1.413565916648856780e-01
1.459999999999999964e+00 -8.264995878880623814e-02
1.469999999999999973e+00 -2.363009081485329538e-02
1.479999999999999982e+00 3.328536446716605368e-02
1.489999999999999991e+00 8.560764165750850418e-02
1.500000000000000000e+00 1.314487696032365927e-01
1.510000000000000009e+00 1.689609433157132912e-01
1.520000000000000018e+00 1.965393856848404730e-01
1.530000000000000027e+00 2.137427618264478857e-01
1.540000000000000036e+00 2.191216160311373895e-01
1.550000000000000044e+00 2.139574657616714892e-01
1.560000000000000053e+00 1.970164978150419077e-01
1.570000000000000062e+00 1.709632901297980789e-01
1.580000000000000071e+00 1.354187175263778520e-01
1.590000000000000080e+00 9.334771196321606235e-02
1.600000000000000089e+00 4.575201409392417456e-02
1.610000000000000098e+00 -4.826277251651304306e-03
1.620000000000000107e+00 -5.650620756770365072e-02
1.630000000000000115e+00 -1.070577974049739950e-01
1.640000000000000124e+00 -1.546268455835941302e-01
1.650000000000000133e+00 -1.971214510530791830e-01
1.660000000000000142e+00 -2.335542252498356286e-01
1.669999999999999929e+00 -2.618511924654737255e-01
1.679999999999999938e+00 -2.824418456227584251e-01
1.689999999999999947e+00 -2.932939922576756619e-01
1.699999999999999956e+00 -2.960950905083573614e-01
1.709999999999999964e+00 -2.898756012466948695e-01
1.719999999999999973e+00 -2.765035733999684497e-01
1.729999999999999982e+00 -2.564035450797519378e-01
1.739999999999999991e+00 -2.314074943237082738e-01
1.750000000000000000e+00 -2.029417846455121854e-01
1.760000000000000009e+00 -1.728281948821333569e-01
1.770000000000000018e+00 -1.427897325492928360e-01
1.780000000000000027e+00 -1.147519089721818347e-01
1.790000000000000036e+00 -8.995066923360149624e-02
1.800000000000000044e+00 -7.051554676808217959e-02
1.810000000000000053e+00 -5.665557902367967386e-02
1.820000000000000062e+00 -5.039424783960097520e-02
1.830000000000000071e+00 -5.107845192544915175e-02
1.840000000000000080e+00 -5.981550775390957059e-02
1.850000000000000089e+00 -7.566489014062102725e-02
1.860000000000000098e+00 -9.850104579734943189e-02
1.870000000000000107e+00 -1.272212495640117624e-01
1.880000000000000115e+00 -1.606630921089517994e-01
1.890000000000000124e+00 -1.975416836973361290e-01
1.900000000000000133e+00 -2.361888123153190189e-01
1.910000000000000142e+00 -2.750197280449862558e-01
1.919999999999999929e+00 -3.125702146669701031e-01
1.929999999999999938e+00 -3.468232173418081543e-01
1.939999999999999947e+00 -3.770313161198337593e-01
1.949999999999999956e+00 -4.012214184884959622e-01
1.959999999999999964e+00 -4.191819755839570338e-01
1.969999999999999973e+00 -4.296367291487901419e-01
1.979999999999999982e+00 -4.326614066985107199e-01
1.989999999999999991e+00 -4.280548191789463330e-01
2.000000000000000000e+00 -4.160575988582597695e-01
2.010000000000000231e+00 -3.975538742834894279e-01
2.020000000000000018e+00 -3.729493613126686480e-01
2.030000000000000249e+00 -3.438812430663352737e-01
2.040000000000000036e+00 -3.110194155052997123e-01
2.049999999999999822e+00 -2.761713246666810950e-01
2.060000000000000053e+00 -2.404398120640832137e-01
2.069999999999999840e+00 -2.052277647486644707e-01
2.080000000000000071e+00 -1.718509324598976595e-01
2.089999999999999858e+00 -1.412153969510475116e-01
2.100000000000000089e+00 -1.143234800236454934e-01
2.109999999999999876e+00 -9.172321825105644866e-02
2.120000000000000107e+00 -7.368772397401257557e-02
2.129999999999999893e+00 -6.048551289535456649e-02
2.140000000000000124e+00 -5.153802499351948369e-02
2.149999999999999911e+00 -4.681639939251139304e-02
2.160000000000000142e+00 -4.508852651625176039e-02
2.169999999999999929e+00 -4.592320684843460843e-02
2.180000000000000160e+00 -4.789886567989375121e-02
2.189999999999999947e+00 -5.002406846586680139e-02
2.200000000000000178e+00 -5.114309366075001778e-02
2.209999999999999964e+00 -5.004459011888095360e-02
2.220000000000000195e+00 -4.581624347466619479e-02
2.229999999999999982e+00 -3.756181743510370041e-02
2.240000000000000213e+00 -2.455102745616015783e-02
2.250000000000000000e+00 -6.620187580133907526e-03
2.260000000000000231e+00 1.678272067115800514e-02
2.270000000000000018e+00 4.492892551863363754e-02
2.280000000000000249e+00 7.809544439694965368e-02
2.290000000000000036e+00 1.148619993559331642e-01
2.300000000000000266e+00 1.549088379693319140e-01
2.310000000000000053e+00 1.966551300800742086e-01
2.319999999999999840e+00 2.390347602986008790e-01
2.330000000000000071e+00 2.806131529742682540e-01
2.339999999999999858e+00 3.199774466153123553e-01
2.350000000000000089e+00 3.557565182120182024e-01
2.359999999999999876e+00 3.867993884636072854e-01
2.370000000000000107e+00 4.116962034205419174e-01
2.379999999999999893e+00 4.301050321357042794e-01
2.390000000000000124e+00 4.405322679325306412e-01
2.399999999999999911e+00 4.437745679754563910e-01
2.410000000000000142e+00 4.383246188858205827e-01
2.419999999999999929e+00 4.259055013962240177e-01
2.430000000000000160e+00 4.058635065141810161e-01
2.439999999999999947e+00 3.799391068424496365e-01
2.450000000000000178e+00 3.485962558675850254e-01
2.459999999999999964e+00 3.134458320407644827e-01
2.470000000000000195e+00 2.757215231950816414e-01
2.479999999999999982e+00 2.369720326521078946e-01
2.490000000000000213e+00 1.986144131427137749e-01
2.500000000000000000e+00 1.622564728959290381e-01
2.510000000000000231e+00 1.288672981326325351e-01
2.520000000000000018e+00 1.002097857457914520e-01
2.530000000000000249e+00 7.637868084168325522e-02
2.540000000000000036e+00 5.905418865776760479e-02
2.550000000000000266e+00 4.760929635257833692e-02
2.560000000000000053e+00 4.295663966210196139e-02
2.569999999999999840e+00 4.425687451227600100e-02
2.580000000000000071e+00 5.139718986366862558e-02
2.589999999999999858e+00 6.342676446943805446e-02
2.600000000000000089e+00 7.937962292668379605e-02
2.609999999999999876e+00 9.817533552703648636e-02
2.620000000000000107e+00 1.184384166129088672e-01
2.629999999999999893e+00 1.388638380030838282e-01
2.640000000000000124e+00 1.582525979070810995e-01
2.649999999999999911e+00 1.749739543002686859e-01
2.660000000000000142e+00 1.884323894950670764e-01
2.669999999999999929e+00 1.970523357214165605e-01
2.680000000000000160e+00 2.007119080780543074e-01
2.689999999999999947e+00 1.984318899490726817e-01
2.700000000000000178e+00 1.903612759924503683e-01
2.709999999999999964e+00 1.764220897555840439e-01
2.720000000000000195e+00 1.569523823101044158e-01
2.729999999999999982e+00 1.327603627853095880e-01
2.740000000000000213e+00 1.044000152068448872e-01
2.750000000000000000e+00 7.325298165709007159e-02
2.760000000000000231e+00 4.020299600091487013e-02
2.770000000000000018e+00 6.691512293112478020e-03
2.780000000000000249e+00 -2.595422183495464663e-02
2.790000000000000036e+00 -5.666486199567839777e-02
2.800000000000000266e+00 -8.397636219751931919e-02
2.810000000000000053e+00 -1.071743851805430775e-01
2.819999999999999840e+00 -1.251808339354859023e-01
2.830000000000000071e+00 -1.374986435085373271e-01
2.839999999999999858e+00 -1.438380489912271520e-01
2.850000000000000089e+00 -1.438435349565275467e-01
2.859999999999999876e+00 -1.381528965081766647e-01
2.870000000000000107e+00 -1.265753090626713928e-01
2.879999999999999893e+00 -1.105173652175732713e-01
2.890000000000000124e+00 -9.007195870478870714e-02
2.899999999999999911e+00 -6.694315562369895778e-02
2.910000000000000142e+00 -4.184972540661228979e-02
2.919999999999999929e+00 -1.620384897501428445e-02
2.930000000000000160e+00 8.863983263194926548e-03
2.939999999999999947e+00 3.222286839030664984e-02
2.950000000000000178e+00 5.284158060798656992e-02
2.959999999999999964e+00 6.976981018800255951e-02
2.970000000000000195e+00 8.253278092834760715e-02
2.979999999999999982e+00 9.029704497908912220e-02
2.990000000000000213e+00 9.340212564643189663e-02
3.000000000000000000e+00 9.115193368982521527e-02
3.010000000000000231e+00 8.463535522809793876e-02
3.020000000000000018e+00 7.356648122478719187e-02
3.030000000000000249e+00 5.932022379034473936e-02
3.040000000000000036e+00 4.233047094967332113e-02
3.050000000000000266e+00 2.384766920451131256e-02
3.060000000000000053e+00 4.812722375056217167e-03
3.070000000000000284e+00 -1.362426085475598736e-02
3.080000000000000071e+00 -3.047853494290942225e-02
3.089999999999999858e+00 -4.463328371626589658e-02
3.100000000000000089e+00 -5.552328473018849214e-02
3.109999999999999876e+00 -6.201823463160842376e-02
3.120000000000000107e+00 -6.430184880740090481e-02
3.129999999999999893e+00 -6.125705497330146548e-02
3.140000000000000124e+00 -5.377498592397136207e-02
3.149999999999999911e+00 -4.129424614180596254e-02
3.160000000000000142e+00 -2.486477391983419813e-02
3.169999999999999929e+00 -4.712354199324890122e-03
3.180000000000000160e+00 1.810752329068529565e-02
3.189999999999999947e+00 4.277482997565972694e-02
3.200000000000000178e+00 6.821112312973581782e-02
3.209999999999999964e+00 9.340415037493349226e-02
3.220000000000000195e+00 1.171836338969256402e-01
3.229999999999999982e+00 1.388120504941424693e-01
3.240000000000000213e+00 1.569647487695983723e-01
3.250000000000000000e+00 1.715240177832459967e-01
3.260000000000000231e+00 1.811723656526883774e-01
3.270000000000000018e+00 1.863386356771757069e-01
3.280000000000000249e+00 1.862488617349470355e-01
3.290000000000000036e+00 1.814931098397070952e-01
3.300000000000000266e+00 1.720700149998974360e-01
3.310000000000000053e+00 1.586515662249945446e-01
3.320000000000000284e+00 1.419112885639232935e-01
3.330000000000000071e+00 1.226106767271155501e-01
3.339999999999999858e+00 1.017865363172382603e-01
3.350000000000000089e+00 8.035748368181362677e-02
3.359999999999999876e+00 5.929020700516350606e-02
3.370000000000000107e+00 3.973763978130530339e-02
3.379999999999999893e+00 2.225161074227869490e-02
3.390000000000000124e+00 7.986696776119014268e-03
3.399999999999999911e+00 -2.883391367210441213e-03
3.410000000000000142e+00 -9.600962902665540616e-03
3.419999999999999929e+00 -1.221757555544891564e-02
3.430000000000000160e+00 -1.062012559588664667e-02
3.439999999999999947e+00 -5.016548686330708426e-03
3.450000000000000178e+00 4.051472196488747554e-03
3.459999999999999964e+00 1.621059297410187144e-02
3.470000000000000195e+00 3.047962428510291380e-02
3.479999999999999982e+00 4.624718777543718878e-02
3.490000000000000213e+00 6.246541884182641585e-02
3.500000000000000000e+00 7.820518447455923616e-02
3.510000000000000231e+00 9.268172664067528266e-02
3.520000000000000018e+00 1.048616637170360077e-01
3.530000000000000249e+00 1.142343923307579390e-01
3.540000000000000036e+00 1.200422913599372698e-01
3.550000000000000266e+00 1.219579898344921726e-01
3.560000000000000053e+00 1.197924495457356464e-01
3.570000000000000284e+00 1.133551921484888814e-01
3.580000000000000071e+00 1.031191717681027992e-01
3.589999999999999858e+00 8.905632008910115138e-02
3.600000000000000089e+00 7.216923457971387290e-02
3.609999999999999876e+00 5.268637492287858715e-02
3.620000000000000107e+00 3.179457712140469627e-02
3.629999999999999893e+00 1.017030061098104197e-02
3.640000000000000124e+00 -1.120016977695830786e-02
3.649999999999999911e+00 -3.138844742470497245e-02
3.660000000000000142e+00 -4.959776887372194937e-02
3.669999999999999929e+00 -6.504279188788050781e-02
3.680000000000000160e+00 -7.704287272000596987e-02
3.689999999999999947e+00 -8.529938391075436721e-02
3.700000000000000178e+00 -8.920773608413046230e-02
3.709999999999999964e+00 -8.913664918881739063e-02
3.720000000000000195e+00 -8.458600571003471735e-02
3.729999999999999982e+00 -7.651823465841961491e-02
3.740000000000000213e+00 -6.475528924400912600e-02
3.750000000000000000e+00 -5.047086393793951548e-02
3.760000000000000231e+00 -3.406411822932341876e-02
3.770000000000000018e+00 -1.657792208316501842e-02
3.780000000000000249e+00 1.193700062135738191e-03
3.790000000000000036e+00 1.830778894176997990e-02
3.800000000000000266e+00 3.395966813241194093e-02
3.810000000000000053e+00 4.724513296889447378e-02
3.820000000000000284e+00 5.772389269766532716e-02
3.830000000000000071e+00 6.448995763562626049e-02
3.839999999999999858e+00 6.772610952334207068e-02
3.850000000000000089e+00 6.654643021586621743e-02
3.859999999999999876e+00 6.171381984226231854e-02
