# [DEFAULT]
# # input and output specifications
# dataformat = QA
# outputtype = gr
# 
# # PDF calculation setup
# mode = xray
# wavelength = 
# composition = Cl4.0Cr1.0Na1.0
# bgscale = 1.0
# rpoly = 0.9
# qmaxinst = 28
# qmin = 0.0
# qmax = 22
# rmin = 0.0
# rmax = 30.0
# rstep = 0.01
# 
# # End of config --------------------------------------------------------------
# 
# #### start data
# #S 1
# #L r(Å)  G(Å$^$)
# 
0.000000000000000000e+00 0.000000000000000000e+00
1.000000000000000021e-02 -3.728747788845232329e-03
2.000000000000000042e-02 -7.524797633035882997e-03
2.999999999999999889e-02 -1.145819258117784963e-02
4.000000000000000083e-02 -1.554071430354622523e-02
5.000000000000000278e-02 -1.977330901765445015e-02
5.999999999999999778e-02 -2.408548619930103718e-02
7.000000000000000666e-02 -2.837080846648771387e-02
8.000000000000000167e-02 -3.245205953924576447e-02
8.999999999999999667e-02 -3.614560958723098821e-02
1.000000000000000056e-01 -3.914336680473474300e-02
1.100000000000000006e-01 -4.128530645003484351e-02
1.199999999999999956e-01 -4.211852099699629065e-02
1.300000000000000044e-01 -4.161938863774493347e-02
1.400000000000000133e-01 -3.929381851635509182e-02
1.499999999999999944e-01 -3.525324911890836271e-02
1.600000000000000033e-01 -2.918959330969261162e-02
1.700000000000000122e-01 -2.128701603149682139e-02
1.799999999999999933e-01 -1.156381281387082113e-02
1.900000000000000022e-01 -3.023522579712807114e-04
2.000000000000000111e-01 1.214179306531911438e-02
2.099999999999999922e-01 2.532876339401761434e-02
2.200000000000000011e-01 3.869173371798208250e-02
2.300000000000000100e-01 5.154758280694375638e-02
2.399999999999999911e-01 6.336849182728009067e-02
2.500000000000000000e-01 7.314397311192238904e-02
2.600000000000000089e-01 8.059390766053428634e-02
2.700000000000000178e-01 8.466877537177269764e-02
2.800000000000000266e-01 8.523632917950156596e-02
2.899999999999999800e-01 8.157516121031951895e-02
2.999999999999999889e-01 7.366130383549654437e-02
3.099999999999999978e-01 6.137110169365747603e-02
3.200000000000000067e-01 4.480706948820886715e-02
3.300000000000000155e-01 2.453522833040906390e-02
3.400000000000000244e-01 8.853835032399566540e-04
3.500000000000000333e-01 -2.503179231414789235e-02
3.599999999999999867e-01 -5.247720487424112346e-02
3.699999999999999956e-01 -8.016243684604955344e-02
3.800000000000000044e-01 -1.067617902276188635e-01
3.900000000000000133e-01 -1.311626050779566566e-01
4.000000000000000222e-01 -1.517256151563318167e-01
4.100000000000000311e-01 -1.674907249258321684e-01
4.199999999999999845e-01 -1.770683623086823366e-01
4.299999999999999933e-01 -1.795446072427400175e-01
4.400000000000000022e-01 -1.743345740372796993e-01
4.500000000000000111e-01 -1.605328822243939080e-01
4.600000000000000200e-01 -1.387180390034248034e-01
4.700000000000000289e-01 -1.080891772770557757e-01
4.799999999999999822e-01 -7.041955519277941222e-02
4.899999999999999911e-01 -2.527369957841811912e-02
5.000000000000000000e-01 2.487885716538526873e-02
5.100000000000000089e-01 7.928381857044722314e-02
5.200000000000000178e-01 1.356614817493344560e-01
5.300000000000000266e-01 1.922092408186711343e-01
5.400000000000000355e-01 2.467282269121357785e-01
5.500000000000000444e-01 2.971193946866336200e-01
5.600000000000000533e-01 3.410567998352491692e-01
5.700000000000000622e-01 3.770410240180722683e-01
5.799999999999999600e-01 4.024341034996117283e-01
5.899999999999999689e-01 4.171472082064721087e-01
5.999999999999999778e-01 4.181819376906251717e-01
6.099999999999999867e-01 4.071406542258194650e-01
6.199999999999999956e-01 3.815083804359290509e-01
6.300000000000000044e-01 3.437412161127462729e-01
6.400000000000000133e-01 2.930568726914317135e-01
6.500000000000000222e-01 2.318829096595912131e-01
6.600000000000000311e-01 1.613376597386054767e-01
6.700000000000000400e-01 8.386970907171988066e-02
6.800000000000000488e-01 1.900419451458697229e-03
6.900000000000000577e-01 -8.185872225178769668e-02
7.000000000000000666e-01 -1.646852425673622222e-01
7.099999999999999645e-01 -2.432699470463608460e-01
7.199999999999999734e-01 -3.157683092674705705e-01
7.299999999999999822e-01 -3.779867447947822812e-01
7.399999999999999911e-01 -4.295775652504965070e-01
7.500000000000000000e-01 -4.667357648716171092e-01
7.600000000000000089e-01 -4.897588712185494408e-01
7.700000000000000178e-01 -4.964377828111304902e-01
7.800000000000000266e-01 -4.873376401962329907e-01
7.900000000000000355e-01 -4.624193098836670290e-01
8.000000000000000444e-01 -4.224002573127670912e-01
8.100000000000000533e-01 -3.693540683955113813e-01
8.200000000000000622e-01 -3.042972085731689980e-01
8.300000000000000711e-01 -2.307422495553765607e-01
8.399999999999999689e-01 -1.503656745750200918e-01
8.499999999999999778e-01 -6.696918451753576529e-02
8.599999999999999867e-01 1.664369011892741917e-02
8.699999999999999956e-01 9.745181785814190090e-02
8.800000000000000044e-01 1.720435348592325719e-01
8.900000000000000133e-01 2.381791961175152017e-01
9.000000000000000222e-01 2.930398302382817843e-01
9.100000000000000311e-01 3.347973941035128909e-01
9.200000000000000400e-01 3.622961859233935211e-01
9.300000000000000488e-01 3.738896352921985966e-01
9.400000000000000577e-01 3.706477843407588457e-01
9.500000000000000666e-01 3.511200901461479229e-01
9.599999999999999645e-01 3.185133605047860139e-01
9.699999999999999734e-01 2.718586685089493526e-01
9.799999999999999822e-01 2.154838217366484843e-01
9.899999999999999911e-01 1.502386647266889530e-01
1.000000000000000000e+00 7.986946380384223054e-02
1.010000000000000009e+00 6.796988525782039769e-03
1.020000000000000018e+00 -6.573851464168806169e-02
1.030000000000000027e+00 -1.349167310690290722e-01
1.040000000000000036e+00 -1.977305009912269929e-01
1.050000000000000044e+00 -2.522026592752887875e-01
1.060000000000000053e+00 -2.953143168257624240e-01
1.070000000000000062e+00 -3.269053949874586307e-01
1.080000000000000071e+00 -3.438742099815586539e-01
1.090000000000000080e+00 -3.481112665403384154e-01
1.100000000000000089e+00 -3.372766683572294699e-01
1.110000000000000098e+00 -3.142790965546614079e-01
1.120000000000000107e+00 -2.787455178392669874e-01
1.130000000000000115e+00 -2.335287609962764521e-01
1.140000000000000124e+00 -1.801699718630457026e-01
1.150000000000000133e+00 -1.214519910204320124e-01
1.159999999999999920e+00 -5.997325420175945998e-02
1.169999999999999929e+00 1.373207758747347490e-03
1.179999999999999938e+00 6.008882831038660222e-02
1.189999999999999947e+00 1.129315571998123213e-01
1.199999999999999956e+00 1.586516118988325896e-01
1.209999999999999964e+00 1.935149648338490014e-01
1.219999999999999973e+00 2.179442970186137585e-01
1.229999999999999982e+00 2.290289192036423227e-01
1.239999999999999991e+00 2.278560046168485453e-01
1.250000000000000000e+00 2.133069543073792540e-01
1.260000000000000009e+00 1.867606833341526884e-01
1.270000000000000018e+00 1.490526611108062005e-01
1.280000000000000027e+00 1.017793470390952887e-01
1.290000000000000036e+00 4.726555946618437448e-02
1.300000000000000044e+00 -1.253184392339532632e-02
1.310000000000000053e+00 -7.473351256346119631e-02
1.320000000000000062e+00 -1.367566190823047978e-01
1.330000000000000071e+00 -1.962445850098587519e-01
1.340000000000000080e+00 -2.499815367120594434e-01
1.350000000000000089e+00 -2.966592678113866288e-01
1.360000000000000098e+00 -3.333637339471062777e-01
1.370000000000000107e+00 -3.594511942074644639e-01
1.380000000000000115e+00 -3.732932654223496405e-01
1.390000000000000124e+00 -3.746215539978882680e-01
1.400000000000000133e+00 -3.636176300298787911e-01
1.409999999999999920e+00 -3.402847631179381493e-01
1.419999999999999929e+00 -3.065642861706107114e-01
1.429999999999999938e+00 -2.628453764807094917e-01
1.439999999999999947e+00 -2.122254701909739305e-01
1.449999999999999956e+00 -1.557661569267586865e-01
1.459999999999999964e+00 -9.670077952489762596e-02
1.469999999999999973e+00 -3.716427964042176568e-02
1.479999999999999982e+00 2.035707201158311677e-02
1.489999999999999991e+00 7.333044695250987011e-02
1.500000000000000000e+00 1.198109101722656666e-01
1.510000000000000009e+00 1.579027072477056093e-01
1.520000000000000018e+00 1.859526856159426367e-01
1.530000000000000027e+00 2.034903019472149022e-01
1.540000000000000036e+00 2.090237692939562741e-01
1.550000000000000044e+00 2.038388989830976217e-01
1.560000000000000053e+00 1.866661757529533283e-01
1.570000000000000062e+00 1.602080763448553435e-01
1.580000000000000071e+00 1.240689975435035480e-01
1.590000000000000080e+00 8.126669356020851942e-02
1.600000000000000089e+00 3.281857989708487910e-02
1.610000000000000098e+00 -1.868187751770181149e-02
1.620000000000000107e+00 -7.131431337703718343e-02
1.630000000000000115e+00 -1.227988444912747334e-01
1.640000000000000124e+00 -1.712377754250462014e-01
1.650000000000000133e+00 -2.144883897962272801e-01
1.660000000000000142e+00 -2.515365280595369124e-01
1.669999999999999929e+00 -2.802544813186350070e-01
1.679999999999999938e+00 -3.010774713609458142e-01
1.689999999999999947e+00 -3.119174737762160921e-01
1.699999999999999956e+00 -3.144990307604964563e-01
1.709999999999999964e+00 -3.078212471210642343e-01
1.719999999999999973e+00 -2.937950356720747669e-01
1.729999999999999982e+00 -2.728489598692526164e-01
1.739999999999999991e+00 -2.468579376937974357e-01
1.750000000000000000e+00 -2.172804838068284061e-01
1.760000000000000009e+00 -1.859816659485438728e-01
1.770000000000000018e+00 -1.547285968776043741e-01
1.780000000000000027e+00 -1.254932521923191879e-01
1.790000000000000036e+00 -9.954809422513478945e-02
1.800000000000000044e+00 -7.907539470887123279e-02
1.810000000000000053e+00 -6.429807878685996070e-02
1.820000000000000062e+00 -5.729283487671624903e-02
1.830000000000000071e+00 -5.739922172702173475e-02
1.840000000000000080e+00 -6.575897711445158333e-02
1.850000000000000089e+00 -8.141655362514582661e-02
1.860000000000000098e+00 -1.042524539280434703e-01
1.870000000000000107e+00 -1.331458701288161517e-01
1.880000000000000115e+00 -1.669141795689376706e-01
1.890000000000000124e+00 -2.042528085215923606e-01
1.900000000000000133e+00 -2.434571755335508958e-01
1.910000000000000142e+00 -2.829204018192487124e-01
1.919999999999999929e+00 -3.211401977210066594e-01
1.929999999999999938e+00 -3.560734662434469344e-01
1.939999999999999947e+00 -3.869458754727314043e-01
1.949999999999999956e+00 -4.117578377255349253e-01
1.959999999999999964e+00 -4.302855881422005258e-01
1.969999999999999973e+00 -4.412356974298914380e-01
1.979999999999999982e+00 -4.446820383824394707e-01
1.989999999999999991e+00 -4.404217748317949543e-01
2.000000000000000000e+00 -4.287007811653880673e-01
2.010000000000000231e+00 -4.104158619644683315e-01
2.020000000000000018e+00 -3.859832193095996677e-01
2.030000000000000249e+00 -3.570596354374372394e-01
2.040000000000000036e+00 -3.243294456825611127e-01
2.049999999999999822e+00 -2.896165521770037721e-01
2.060000000000000053e+00 -2.540391649067365032e-01
2.069999999999999840e+00 -2.190064696964773294e-01
2.080000000000000071e+00 -1.858421424980609693e-01
2.089999999999999858e+00 -1.554476389497941036e-01
2.100000000000000089e+00 -1.288189030276169489e-01
2.109999999999999876e+00 -1.064875150706454249e-01
2.120000000000000107e+00 -8.870605941323161936e-02
2.129999999999999893e+00 -7.571217528552370846e-02
2.140000000000000124e+00 -6.690109257295306922e-02
2.149999999999999911e+00 -6.219478404899447116e-02
2.160000000000000142e+00 -6.034441828667785890e-02
2.169999999999999929e+00 -6.084785867460193454e-02
2.180000000000000160e+00 -6.228611490835971737e-02
2.189999999999999947e+00 -6.359852668537363529e-02
2.200000000000000178e+00 -6.363838944445243673e-02
2.209999999999999964e+00 -6.115115259156714278e-02
2.220000000000000195e+00 -5.523574129323329668e-02
2.229999999999999982e+00 -4.499268537916176897e-02
2.240000000000000213e+00 -2.970646071507911795e-02
2.250000000000000000e+00 -9.252568982665052705e-03
2.260000000000000231e+00 1.689661282443681925e-02
2.270000000000000018e+00 4.794149192088242167e-02
2.280000000000000249e+00 8.411427922889452846e-02
2.290000000000000036e+00 1.239149313808878689e-01
2.300000000000000266e+00 1.669467923335108406e-01
2.310000000000000053e+00 2.115618543932816786e-01
2.319999999999999840e+00 2.565981199875415619e-01
2.330000000000000071e+00 3.005647460965565343e-01
2.339999999999999858e+00 3.419646301494950191e-01
2.350000000000000089e+00 3.793723280996036396e-01
2.359999999999999876e+00 4.115948287236028680e-01
2.370000000000000107e+00 4.371638980678540509e-01
2.379999999999999893e+00 4.557584980164514632e-01
2.390000000000000124e+00 4.658228400903112187e-01
2.399999999999999911e+00 4.682424085156537408e-01
2.410000000000000142e+00 4.614521451359130388e-01
2.419999999999999929e+00 4.473073117716770963e-01
2.430000000000000160e+00 4.251505015709469149e-01
2.439999999999999947e+00 3.968422950464130516e-01
2.450000000000000178e+00 3.629028871017353497e-01
2.459999999999999964e+00 3.250489219607287650e-01
2.470000000000000195e+00 2.846013872406203404e-01
2.479999999999999982e+00 2.432094249915852935e-01
2.490000000000000213e+00 2.023704377579239877e-01
2.500000000000000000e+00 1.637974684769964162e-01
2.510000000000000231e+00 1.284968956277311447e-01
2.520000000000000018e+00 9.834820231124728751e-02
2.530000000000000249e+00 7.342105957430768159e-02
2.540000000000000036e+00 5.550449350901028034e-02
2.550000000000000266e+00 4.390460651685184484e-02
2.560000000000000053e+00 3.958774315828592766e-02
2.569999999999999840e+00 4.164381618372376553e-02
2.580000000000000071e+00 4.994526972236303791e-02
2.589999999999999858e+00 6.347050325037789653e-02
2.600000000000000089e+00 8.118482080951457125e-02
2.609999999999999876e+00 1.019329745546706661e-01
2.620000000000000107e+00 1.242463581309618675e-01
2.629999999999999893e+00 1.467321705242101704e-01
2.640000000000000124e+00 1.681110811384086967e-01
2.649999999999999911e+00 1.866421797809936500e-01
2.660000000000000142e+00 2.016886951916047888e-01
2.669999999999999929e+00 2.115653233507149289e-01
2.680000000000000160e+00 2.161375736325382435e-01
2.689999999999999947e+00 2.143517430039430238e-01
2.700000000000000178e+00 2.063578094434760646e-01
2.709999999999999964e+00 1.920601894182185077e-01
2.720000000000000195e+00 1.718044335902286224e-01
2.729999999999999982e+00 1.464413254154220134e-01
2.740000000000000213e+00 1.165390799536072108e-01
2.750000000000000000e+00 8.356777314434667148e-02
2.760000000000000231e+00 4.843879927147252962e-02
2.770000000000000018e+00 1.269879210901820460e-02
2.780000000000000249e+00 -2.227023388645100674e-02
2.790000000000000036e+00 -5.530975949751196913e-02
2.800000000000000266e+00 -8.487876755913921489e-02
2.810000000000000053e+00 -1.101975908546425353e-01
2.819999999999999840e+00 -1.301168274674990022e-01
2.830000000000000071e+00 -1.440881870329335512e-01
2.839999999999999858e+00 -1.517839985601051878e-01
2.850000000000000089e+00 -1.528040198329395638e-01
2.859999999999999876e+00 -1.477975358660814365e-01
2.870000000000000107e+00 -1.365328102450596715e-01
2.879999999999999893e+00 -1.204782963748382285e-01
2.890000000000000124e+00 -9.969292718209651905e-02
2.899999999999999911e+00 -7.597228188469482002e-02
2.910000000000000142e+00 -5.003711260116629894e-02
2.919999999999999929e+00 -2.338073272856238186e-02
2.930000000000000160e+00 2.828467308611927120e-03
2.939999999999999947e+00 2.739294603356121766e-02
2.950000000000000178e+00 4.922940000926344373e-02
2.959999999999999964e+00 6.733111031105386279e-02
2.970000000000000195e+00 8.118125562509388715e-02
2.979999999999999982e+00 8.989555316756694947e-02
2.990000000000000213e+00 9.380015982248349204e-02
3.000000000000000000e+00 9.215152886218994088e-02
3.010000000000000231e+00 8.605987488541486097e-02
3.020000000000000018e+00 7.520429086798474660e-02
3.030000000000000249e+00 6.100170511976109322e-02
3.040000000000000036e+00 4.388119271669740223e-02
3.050000000000000266e+00 2.513638318875497518e-02
3.060000000000000053e+00 5.731905367697529355e-03
3.070000000000000284e+00 -1.313998205438750809e-02
3.080000000000000071e+00 -3.045668895582816227e-02
3.089999999999999858e+00 -4.505917667416290545e-02
3.100000000000000089e+00 -5.634835029638272236e-02
3.109999999999999876e+00 -6.314949460064754605e-02
3.120000000000000107e+00 -6.563270427174638932e-02
3.129999999999999893e+00 -6.263352621073171866e-02
3.140000000000000124e+00 -5.505462686788836074e-02
3.149999999999999911e+00 -4.230106974378284451e-02
3.160000000000000142e+00 -2.544491795530208142e-02
3.169999999999999929e+00 -4.704048824467928561e-03
3.180000000000000160e+00 1.884048777464491023e-02
3.189999999999999947e+00 4.435206702899771591e-02
3.200000000000000178e+00 7.072490728561901807e-02
3.209999999999999964e+00 9.691541269881810694e-02
3.220000000000000195e+00 1.217233646657948226e-01
3.229999999999999982e+00 1.443793350080803395e-01
3.240000000000000213e+00 1.635244353304179665e-01
3.250000000000000000e+00 1.790216671041948426e-01
3.260000000000000231e+00 1.895172699416372564e-01
3.270000000000000018e+00 1.954370067322394044e-01
3.280000000000000249e+00 1.959813021489202056e-01
3.290000000000000036e+00 1.917458744033342655e-01
3.300000000000000266e+00 1.827227420086653398e-01
3.310000000000000053e+00 1.695946644673224368e-01
3.320000000000000284e+00 1.530475866275327612e-01
3.330000000000000071e+00 1.338573836660443273e-01
3.339999999999999858e+00 1.130855117334782223e-01
3.350000000000000089e+00 9.166865463656630186e-02
3.359999999999999876e+00 7.059935781924057963e-02
3.370000000000000107e+00 5.105262328720660409e-02
3.379999999999999893e+00 3.359719624369365137e-02
3.390000000000000124e+00 1.940887953973931268e-02
3.399999999999999911e+00 8.666734911408463179e-03
3.410000000000000142e+00 2.139584509019322716e-03
3.419999999999999929e+00 -2.282108478564301500e-04
3.430000000000000160e+00 1.672047439506096304e-03
3.439999999999999947e+00 7.619485157430634995e-03
3.450000000000000178e+00 1.705420199172664672e-02
3.459999999999999964e+00 2.957978882469079057e-02
3.470000000000000195e+00 4.419157275981050459e-02
3.479999999999999982e+00 6.024252727260119566e-02
3.490000000000000213e+00 7.666775440331619063e-02
3.500000000000000000e+00 9.249165340000919944e-02
3.510000000000000231e+00 1.069237742080735298e-01
3.520000000000000018e+00 1.188895194680342493e-01
3.530000000000000249e+00 1.278774674119043941e-01
3.540000000000000036e+00 1.331083700723437735e-01
3.550000000000000266e+00 1.342571739638660777e-01
3.560000000000000053e+00 1.311401789865426493e-01
3.570000000000000284e+00 1.235729735960539311e-01
3.580000000000000071e+00 1.120599463059324813e-01
3.589999999999999858e+00 9.658643361452048937e-02
3.600000000000000089e+00 7.820297134009596141e-02
3.609999999999999876e+00 5.716475301461100555e-02
3.620000000000000107e+00 3.470744321850721681e-02
3.629999999999999893e+00 1.155166213906946154e-02
3.640000000000000124e+00 -1.127802989764056102e-02
3.649999999999999911e+00 -3.280412981518927157e-02
3.660000000000000142e+00 -5.219877362630787054e-02
3.669999999999999929e+00 -6.864090423999599788e-02
3.680000000000000160e+00 -8.142179060144406899e-02
3.689999999999999947e+00 -9.023503990852828338e-02
3.700000000000000178e+00 -9.444919063492145106e-02
3.709999999999999964e+00 -9.445962088736797879e-02
3.720000000000000195e+00 -8.974246612419133073e-02
3.729999999999999982e+00 -8.131557476396374107e-02
3.740000000000000213e+00 -6.899214388979255097e-02
3.750000000000000000e+00 -5.400947682076933515e-02
3.760000000000000231e+00 -3.678676903541394649e-02
3.770000000000000018e+00 -1.842135415939826285e-02
3.780000000000000249e+00 2.529228216409575708e-04
3.790000000000000036e+00 1.824516019864427102e-02
3.800000000000000266e+00 3.471006920719668654e-02
3.810000000000000053e+00 4.869814228092811392e-02
3.820000000000000284e+00 5.974603090561481783e-02
3.830000000000000071e+00 6.690238367417930543e-02
3.839999999999999858e+00 7.035725108551928175e-02
3.850000000000000089e+00 6.917977491594541617e-02
3.859999999999999876e+00 6.416865276378831695e-02
