# [DEFAULT]
# # input and output specifications
# dataformat = QA
# outputtype = gr
# 
# # PDF calculation setup
# mode = xray
# wavelength = 
# composition = Cl4.0Cr1.0Na1.0
# bgscale = 1.0
# rpoly = 0.9
# qmaxinst = 28
# qmin = 0.0
# qmax = 22
# rmin = 0.0
# rmax = 30.0
# rstep = 0.01
# 
# # End of config --------------------------------------------------------------
# 
# #### start data
# #S 1
# #L r(Å)  G(Å$^$)
# 
0.000000000000000000e+00 0.000000000000000000e+00
1.000000000000000021e-02 -3.231024930572834811e-03
2.000000000000000042e-02 -6.569984839032472039e-03
2.999999999999999889e-02 -1.013572625302464406e-02
4.000000000000000083e-02 -1.396384972259859421e-02
5.000000000000000278e-02 -1.809164214783144306e-02
5.999999999999999778e-02 -2.245746626606611590e-02
7.000000000000000666e-02 -2.696191405951961495e-02
8.000000000000000167e-02 -3.142236417487035555e-02
8.999999999999999667e-02 -3.562895656465510374e-02
1.000000000000000056e-01 -3.925195806276306904e-02
1.100000000000000006e-01 -4.208273936682730559e-02
1.199999999999999956e-01 -4.362644110287065835e-02
1.300000000000000044e-01 -4.380970549240519735e-02
1.400000000000000133e-01 -4.207689986589536330e-02
1.499999999999999944e-01 -3.850520024243236916e-02
1.600000000000000033e-01 -3.272640456153712296e-02
1.700000000000000122e-01 -2.490551721136243998e-02
1.799999999999999933e-01 -1.502786492540720414e-02
1.900000000000000022e-01 -3.370826225681310389e-03
2.000000000000000111e-01 9.700060475693151468e-03
2.099999999999999922e-01 2.373331258981544248e-02
2.200000000000000011e-01 3.811027460193283645e-02
2.300000000000000100e-01 5.211284224042889851e-02
2.399999999999999911e-01 6.513898500596365659e-02
2.500000000000000000e-01 7.611063309424291601e-02
2.600000000000000089e-01 8.467920412680911280e-02
2.700000000000000178e-01 8.970379984167674292e-02
2.800000000000000266e-01 9.100195620525883267e-02
2.899999999999999800e-01 8.777072572096823733e-02
2.999999999999999889e-01 7.995178138109060306e-02
3.099999999999999978e-01 6.738546843270298847e-02
3.200000000000000067e-01 5.015662535211774103e-02
3.300000000000000155e-01 2.886162287300074458e-02
3.400000000000000244e-01 3.837361937748191669e-03
3.500000000000000333e-01 -2.371227741588544102e-02
3.599999999999999867e-01 -5.299973406347160271e-02
3.699999999999999956e-01 -8.261112737604721368e-02
3.800000000000000044e-01 -1.111096560281527174e-01
3.900000000000000133e-01 -1.372639091730182836e-01
4.000000000000000222e-01 -1.592808802524643685e-01
4.100000000000000311e-01 -1.760940319468475290e-01
4.199999999999999845e-01 -1.861730366365962897e-01
4.299999999999999933e-01 -1.885030114674194901e-01
4.400000000000000022e-01 -1.824317595992131780e-01
4.500000000000000111e-01 -1.669579873185130792e-01
4.600000000000000200e-01 -1.427091432719531372e-01
4.700000000000000289e-01 -1.088073191676045687e-01
4.799999999999999822e-01 -6.719935834096747718e-02
4.899999999999999911e-01 -1.742428368886610526e-02
5.000000000000000000e-01 3.779707329974042046e-02
5.100000000000000089e-01 9.760102138989619480e-02
5.200000000000000178e-01 1.594620264842296353e-01
5.300000000000000266e-01 2.213506492742113307e-01
5.400000000000000355e-01 2.808130440744373568e-01
5.500000000000000444e-01 3.354915821829888012e-01
5.600000000000000533e-01 3.827699444627597480e-01
5.700000000000000622e-01 4.209659712010029309e-01
5.799999999999999600e-01 4.470917908121277429e-01
5.899999999999999689e-01 4.610547001980404014e-01
5.999999999999999778e-01 4.594390968351629856e-01
6.099999999999999867e-01 4.440616272770966377e-01
6.199999999999999956e-01 4.120376848310625673e-01
6.300000000000000044e-01 3.661463257932656146e-01
6.400000000000000133e-01 3.054619669008834526e-01
6.500000000000000222e-01 2.327260701054968128e-01
6.600000000000000311e-01 1.491776241335787401e-01
6.700000000000000400e-01 5.758038443242575327e-02
6.800000000000000488e-01 -3.932441834211303222e-02
6.900000000000000577e-01 -1.384702177375005394e-01
7.000000000000000666e-01 -2.367397493006873355e-01
7.099999999999999645e-01 -3.303723359451996577e-01
7.199999999999999734e-01 -4.172135993404293974e-01
7.299999999999999822e-01 -4.924648049066091549e-01
7.399999999999999911e-01 -5.556511649886123339e-01
7.500000000000000000e-01 -6.023632085463133112e-01
7.600000000000000089e-01 -6.328511327319404911e-01
7.700000000000000178e-01 -6.444799981789696153e-01
7.800000000000000266e-01 -6.377846630941336192e-01
7.900000000000000355e-01 -6.125939543402900700e-01
8.000000000000000444e-01 -5.695808163289404202e-01
8.100000000000000533e-01 -5.110209320008111122e-01
8.200000000000000622e-01 -4.378773070072524143e-01
8.300000000000000711e-01 -3.541560794756649089e-01
8.399999999999999689e-01 -2.615130269680375208e-01
8.499999999999999778e-01 -1.643972133314016981e-01
8.599999999999999867e-01 -6.575073412489509939e-02
8.699999999999999956e-01 3.081380032048331233e-02
8.800000000000000044e-01 1.215484562549808967e-01
8.900000000000000133e-01 2.037500279099840050e-01
9.000000000000000222e-01 2.741963255787819298e-01
9.100000000000000311e-01 3.306690960360440523e-01
9.200000000000000400e-01 3.717089225251588025e-01
9.300000000000000488e-01 3.953019346305715609e-01
9.400000000000000577e-01 4.024427448175768030e-01
9.500000000000000666e-01 3.913080671751299477e-01
9.599999999999999645e-01 3.653209048307199391e-01
9.699999999999999734e-01 3.231388300873347386e-01
9.799999999999999822e-01 2.695233500036332552e-01
9.899999999999999911e-01 2.051652725658936194e-01
1.000000000000000000e+00 1.342213821341993185e-01
1.010000000000000009e+00 5.921385532844006261e-02
1.020000000000000018e+00 -1.625221690763405460e-02
1.030000000000000027e+00 -8.908279353989141669e-02
1.040000000000000036e+00 -1.559352659774216610e-01
1.050000000000000044e+00 -2.145157919996622253e-01
1.060000000000000053e+00 -2.614695447984748400e-01
1.070000000000000062e+00 -2.964101749753408899e-01
1.080000000000000071e+00 -3.158737531386979214e-01
1.090000000000000080e+00 -3.217010109396633566e-01
1.100000000000000089e+00 -3.112108783961071157e-01
1.110000000000000098e+00 -2.874049597301949199e-01
1.120000000000000107e+00 -2.497173050069362021e-01
1.130000000000000115e+00 -2.011402950186273464e-01
1.140000000000000124e+00 -1.432213763659294092e-01
1.150000000000000133e+00 -7.890523025186152450e-02
1.159999999999999920e+00 -1.096756305617286459e-02
1.169999999999999929e+00 5.751321680221343352e-02
1.179999999999999938e+00 1.237702400047070439e-01
1.189999999999999947e+00 1.843334028202201491e-01
1.199999999999999956e+00 2.377019396016136488e-01
1.209999999999999964e+00 2.798469994988715959e-01
1.219999999999999973e+00 3.110404287438707227e-01
1.229999999999999982e+00 3.280703629877394500e-01
1.239999999999999991e+00 3.319559804833236427e-01
1.250000000000000000e+00 3.213675520883354508e-01
1.260000000000000009e+00 2.976609545126629452e-01
1.270000000000000018e+00 2.616151745681477014e-01
1.280000000000000027e+00 2.148269546233839145e-01
1.290000000000000036e+00 1.597326115964307625e-01
1.300000000000000044e+00 9.831048149245118217e-02
1.310000000000000053e+00 3.368188554904896076e-02
1.320000000000000062e+00 -3.151205766779816703e-02
1.330000000000000071e+00 -9.462343286216610971e-02
1.340000000000000080e+00 -1.523022076235640010e-01
1.350000000000000089e+00 -2.029937583565825376e-01
1.360000000000000098e+00 -2.435885727884738450e-01
1.370000000000000107e+00 -2.732634759944311820e-01
1.380000000000000115e+00 -2.902091118109222934e-01
1.390000000000000124e+00 -2.940203914313801459e-01
1.400000000000000133e+00 -2.847857206600802882e-01
1.409999999999999920e+00 -2.623956498687620154e-01
1.419999999999999929e+00 -2.288261456073920064e-01
1.429999999999999938e+00 -1.843718545538244324e-01
1.439999999999999947e+00 -1.322912038475063667e-01
1.449999999999999956e+00 -7.357876872848498340e-02
1.459999999999999964e+00 -1.169837746104730736e-02
1.469999999999999973e+00 5.118445069150942550e-02
1.479999999999999982e+00 1.123825716379796003e-01
1.489999999999999991e+00 1.692470280575936459e-01
1.500000000000000000e+00 2.196644182792199251e-01
1.510000000000000009e+00 2.615989369487147775e-01
1.520000000000000018e+00 2.932494298047610415e-01
1.530000000000000027e+00 3.140445825519002643e-01
1.540000000000000036e+00 3.223524980987697020e-01
1.550000000000000044e+00 3.194437728970263568e-01
1.560000000000000053e+00 3.039106329284084196e-01
1.570000000000000062e+00 2.785351460915189703e-01
1.580000000000000071e+00 2.428166094936583530e-01
1.590000000000000080e+00 1.998985201365914288e-01
1.600000000000000089e+00 1.507751864009503340e-01
1.610000000000000098e+00 9.815804040214931581e-02
1.620000000000000107e+00 4.402059099666197350e-02
1.630000000000000115e+00 -9.253101870777784635e-03
1.640000000000000124e+00 -5.967310297152361026e-02
1.650000000000000133e+00 -1.050042234903418442e-01
1.660000000000000142e+00 -1.441444813362389443e-01
1.669999999999999929e+00 -1.748809415454904148e-01
1.679999999999999938e+00 -1.976018666545275304e-01
1.689999999999999947e+00 -2.101398321827924742e-01
1.699999999999999956e+00 -2.142250508253973340e-01
1.709999999999999964e+00 -2.088098396794428324e-01
1.719999999999999973e+00 -1.958393883006519232e-01
1.729999999999999982e+00 -1.757440752361707492e-01
1.739999999999999991e+00 -1.504482601813967590e-01
1.750000000000000000e+00 -1.214532865525857347e-01
1.760000000000000009e+00 -9.068427547850818615e-02
1.770000000000000018e+00 -5.996857043292649209e-02
1.780000000000000027e+00 -3.134963208167434318e-02
1.790000000000000036e+00 -6.147453721806882265e-03
1.800000000000000044e+00 1.336996244222354163e-02
1.810000000000000053e+00 2.696743238194790337e-02
1.820000000000000062e+00 3.247921384208322937e-02
1.830000000000000071e+00 3.058333913150559913e-02
1.840000000000000080e+00 2.007681587951863980e-02
1.850000000000000089e+00 1.937661797330995743e-03
1.860000000000000098e+00 -2.373479483613875896e-02
1.870000000000000107e+00 -5.580283625477354403e-02
1.880000000000000115e+00 -9.306704334517720834e-02
1.890000000000000124e+00 -1.342193689272075663e-01
1.900000000000000133e+00 -1.775142338894414862e-01
1.910000000000000142e+00 -2.213614887472704074e-01
1.919999999999999929e+00 -2.642075107687014146e-01
1.929999999999999938e+00 -3.040538478148155366e-01
1.939999999999999947e+00 -3.400803951048155804e-01
1.949999999999999956e+00 -3.703438064383579587e-01
1.959999999999999964e+00 -3.946056310967444580e-01
1.969999999999999973e+00 -4.116302273404178758e-01
1.979999999999999982e+00 -4.215087138045823800e-01
1.989999999999999991e+00 -4.240848894266995850e-01
2.000000000000000000e+00 -4.196516358365111055e-01
2.010000000000000231e+00 -4.091195451575481701e-01
2.020000000000000018e+00 -3.929763078495367989e-01
2.030000000000000249e+00 -3.728363282338872930e-01
2.040000000000000036e+00 -3.494672781715961185e-01
2.049999999999999822e+00 -3.245874921804215441e-01
2.060000000000000053e+00 -2.993658956464051446e-01
2.069999999999999840e+00 -2.750730736810109711e-01
2.080000000000000071e+00 -2.529965266244623145e-01
2.089999999999999858e+00 -2.338920600575547792e-01
2.100000000000000089e+00 -2.186332443716435814e-01
2.109999999999999876e+00 -2.075813061916394198e-01
2.120000000000000107e+00 -2.008217112032213147e-01
2.129999999999999893e+00 -1.983710385762851580e-01
2.140000000000000124e+00 -1.994792862507068221e-01
2.149999999999999911e+00 -2.037679408641651646e-01
2.160000000000000142e+00 -2.099446299882877509e-01
2.169999999999999929e+00 -2.171048201984556170e-01
2.180000000000000160e+00 -2.239148261893974257e-01
2.189999999999999947e+00 -2.289480365901196690e-01
2.200000000000000178e+00 -2.311621155320036924e-01
2.209999999999999964e+00 -2.290898169402045270e-01
2.220000000000000195e+00 -2.219190721881789952e-01
2.229999999999999982e+00 -2.087405492496490766e-01
2.240000000000000213e+00 -1.889108511293463299e-01
2.250000000000000000e+00 -1.624967912281280180e-01
2.260000000000000231e+00 -1.290469351371544560e-01
2.270000000000000018e+00 -8.970108788743283434e-02
2.280000000000000249e+00 -4.434818645993342939e-02
2.290000000000000036e+00 5.121906895623270714e-03
2.300000000000000266e+00 5.808432782385967996e-02
2.310000000000000053e+00 1.125603663569266916e-01
2.319999999999999840e+00 1.670705185856594110e-01
2.330000000000000071e+00 2.198674900073890048e-01
2.339999999999999858e+00 2.691532334136417792e-01
2.350000000000000089e+00 3.132794683734313468e-01
2.359999999999999876e+00 3.508815306890544772e-01
2.370000000000000107e+00 3.802718564636674570e-01
2.379999999999999893e+00 4.011640118428149715e-01
2.390000000000000124e+00 4.117784987755500614e-01
2.399999999999999911e+00 4.132644282909249123e-01
2.410000000000000142e+00 4.038491330805292767e-01
2.419999999999999929e+00 3.858036440666110511e-01
2.430000000000000160e+00 3.584403907717651494e-01
2.439999999999999947e+00 3.240052919280196342e-01
2.450000000000000178e+00 2.831900188463229995e-01
2.459999999999999964e+00 2.380555229896856306e-01
2.470000000000000195e+00 1.902066134461737890e-01
2.479999999999999982e+00 1.416254172226648067e-01
2.490000000000000213e+00 9.408377184146268779e-02
2.500000000000000000e+00 4.965356329533240909e-02
2.510000000000000231e+00 9.486338853984650765e-03
2.520000000000000018e+00 -2.412404191981207605e-02
2.530000000000000249e+00 -5.116169083393291156e-02
2.540000000000000036e+00 -6.942220136158375188e-02
2.550000000000000266e+00 -7.978859111147626471e-02
2.560000000000000053e+00 -8.104113392236172997e-02
2.569999999999999840e+00 -7.428158539349215272e-02
2.580000000000000071e+00 -5.960714369401046153e-02
2.589999999999999858e+00 -3.821221608783621076e-02
2.600000000000000089e+00 -1.129970334758286996e-02
2.609999999999999876e+00 1.981695112932573694e-02
2.620000000000000107e+00 5.337388975280114856e-02
2.629999999999999893e+00 8.781124731600670197e-02
2.640000000000000124e+00 1.215269308740684895e-01
2.649999999999999911e+00 1.525722165927515528e-01
2.660000000000000142e+00 1.800547224389084100e-01
2.669999999999999929e+00 2.020398058965572341e-01
2.680000000000000160e+00 2.182364819900376174e-01
2.689999999999999947e+00 2.273716771396849801e-01
2.700000000000000178e+00 2.294964527862771164e-01
2.709999999999999964e+00 2.243965949277142435e-01
2.720000000000000195e+00 2.123412924997049311e-01
2.729999999999999982e+00 1.941969017886412963e-01
2.740000000000000213e+00 1.704569717821925456e-01
2.750000000000000000e+00 1.427354250512505585e-01
2.760000000000000231e+00 1.118639253548015244e-01
2.770000000000000018e+00 7.961447109632145691e-02
2.780000000000000249e+00 4.731563524282341587e-02
2.790000000000000036e+00 1.634279616091931925e-02
2.800000000000000266e+00 -1.175245250467021711e-02
2.810000000000000053e+00 -3.604609662253462771e-02
2.819999999999999840e+00 -5.534152252003315259e-02
2.830000000000000071e+00 -6.901331720821476945e-02
2.839999999999999858e+00 -7.668855422197957961e-02
2.850000000000000089e+00 -7.795105453786310701e-02
2.859999999999999876e+00 -7.342461552691170734e-02
2.870000000000000107e+00 -6.292024896863843142e-02
2.879999999999999893e+00 -4.789370258839437816e-02
2.890000000000000124e+00 -2.850665737680653511e-02
2.899999999999999911e+00 -6.540529907384491984e-03
2.910000000000000142e+00 1.715970840392901445e-02
2.919999999999999929e+00 4.110425146394409285e-02
2.930000000000000160e+00 6.402429196064168826e-02
2.939999999999999947e+00 8.471586278666326519e-02
2.950000000000000178e+00 1.020554924226508564e-01
2.959999999999999964e+00 1.150262977012990739e-01
2.970000000000000195e+00 1.231535483686220372e-01
2.979999999999999982e+00 1.255510097869547148e-01
2.990000000000000213e+00 1.226673896746620779e-01
3.000000000000000000e+00 1.137859443120732839e-01
3.010000000000000231e+00 1.001875900192888413e-01
3.020000000000000018e+00 8.164144471843377826e-02
3.030000000000000249e+00 5.973173715398898131e-02
3.040000000000000036e+00 3.504351473968310426e-02
3.050000000000000266e+00 9.016834485711803723e-03
3.060000000000000053e+00 -1.721234854973890602e-02
3.070000000000000284e+00 -4.230991735855871294e-02
3.080000000000000071e+00 -6.513267607653415447e-02
3.089999999999999858e+00 -8.436943168739063914e-02
3.100000000000000089e+00 -9.940672746471275467e-02
3.109999999999999876e+00 -1.089014233941304755e-01
3.120000000000000107e+00 -1.131455723487055087e-01
3.129999999999999893e+00 -1.107982768377794441e-01
3.140000000000000124e+00 -1.029889940361524564e-01
3.149999999999999911e+00 -8.904229350696246659e-02
3.160000000000000142e+00 -7.025008768857317343e-02
3.169999999999999929e+00 -4.688019108457768674e-02
3.180000000000000160e+00 -2.020801978657267919e-02
3.189999999999999947e+00 8.788505564843396289e-03
3.200000000000000178e+00 3.882372035750799449e-02
3.209999999999999964e+00 6.868732285684514549e-02
3.220000000000000195e+00 9.699643778468940158e-02
3.229999999999999982e+00 1.228601808600639361e-01
3.240000000000000213e+00 1.447192834269743489e-01
3.250000000000000000e+00 1.624104044830895488e-01
3.260000000000000231e+00 1.743804690302960814e-01
3.270000000000000018e+00 1.811113728443801696e-01
3.280000000000000249e+00 1.816813357632328096e-01
3.290000000000000036e+00 1.767652345321037155e-01
3.300000000000000266e+00 1.663436903751457363e-01
3.310000000000000053e+00 1.511873070325846780e-01
3.320000000000000284e+00 1.320697333689937469e-01
3.330000000000000071e+00 1.098626553721276933e-01
3.339999999999999858e+00 8.577352405262951562e-02
3.350000000000000089e+00 6.085199131343672907e-02
3.359999999999999876e+00 3.623723605484565485e-02
3.370000000000000107e+00 1.324682507693346334e-02
3.379999999999999893e+00 -7.452373248280288673e-03
3.390000000000000124e+00 -2.453270474404153564e-02
3.399999999999999911e+00 -3.776866650052201901e-02
3.410000000000000142e+00 -4.627908150436994134e-02
3.419999999999999929e+00 -5.010284146643059072e-02
3.430000000000000160e+00 -4.909393622016011011e-02
3.439999999999999947e+00 -4.347204519383295052e-02
3.450000000000000178e+00 -3.384263540208576337e-02
3.459999999999999964e+00 -2.061111729009034929e-02
3.470000000000000195e+00 -4.891813987355641755e-03
3.479999999999999982e+00 1.264699743626402154e-02
3.490000000000000213e+00 3.080662800002577362e-02
3.500000000000000000e+00 4.856674470070623806e-02
3.510000000000000231e+00 6.502672935768075146e-02
3.520000000000000018e+00 7.904883909250701168e-02
3.530000000000000249e+00 9.005552348395855222e-02
3.540000000000000036e+00 9.721866799436161555e-02
3.550000000000000266e+00 1.001853717754249418e-01
3.560000000000000053e+00 9.876440369870585767e-02
3.570000000000000284e+00 9.277998174373316975e-02
3.580000000000000071e+00 8.277493110349791461e-02
3.589999999999999858e+00 6.878443074359361087e-02
3.600000000000000089e+00 5.192366947949676736e-02
3.609999999999999876e+00 3.254915471851990705e-02
3.620000000000000107e+00 1.195736450904126905e-02
3.629999999999999893e+00 -8.993825419834924201e-03
3.640000000000000124e+00 -2.922983079300937176e-02
3.649999999999999911e+00 -4.764336640393243560e-02
3.660000000000000142e+00 -6.335973226125501956e-02
3.669999999999999929e+00 -7.548118861091593357e-02
3.680000000000000160e+00 -8.325091248129513899e-02
3.689999999999999947e+00 -8.637127374761853493e-02
3.700000000000000178e+00 -8.416349832785147145e-02
3.709999999999999964e+00 -7.712631382538895353e-02
3.720000000000000195e+00 -6.470122939619683822e-02
3.729999999999999982e+00 -4.808020666577082769e-02
3.740000000000000213e+00 -2.709054600809062546e-02
3.750000000000000000e+00 -3.155812750434970702e-03
3.760000000000000231e+00 2.321217799739079546e-02
3.770000000000000018e+00 5.075750369943814178e-02
3.780000000000000249e+00 7.850900089747514521e-02
3.790000000000000036e+00 1.053321190998793011e-01
3.800000000000000266e+00 1.302581030979420018e-01
3.810000000000000053e+00 1.521936910135313348e-01
3.820000000000000284e+00 1.706198859508034904e-01
3.830000000000000071e+00 1.844308973574649013e-01
3.839999999999999858e+00 1.938648288565089362e-01
3.850000000000000089e+00 1.978248327054490108e-01
3.859999999999999876e+00 1.972487346184143564e-01
