# [DEFAULT]
# # input and output specifications
# dataformat = QA
# outputtype = gr
# 
# # PDF calculation setup
# mode = xray
# wavelength = 
# composition = Cl4.0Cr1.0Na1.0
# bgscale = 1.0
# rpoly = 0.9
# qmaxinst = 28
# qmin = 0.0
# qmax = 22
# rmin = 0.0
# rmax = 30.0
# rstep = 0.01
# 
# # End of config --------------------------------------------------------------
# 
# #### start data
# #S 1
# #L r(Å)  G(Å$^$)
# 
0.000000000000000000e+00 0.000000000000000000e+00
1.000000000000000021e-02 -3.701252194601233059e-03
2.000000000000000042e-02 -7.481783068307266624e-03
2.999999999999999889e-02 -1.142566178788668833e-02
4.000000000000000083e-02 -1.555077513116746163e-02
5.000000000000000278e-02 -1.986683267986059237e-02
5.999999999999999778e-02 -2.430318471728870958e-02
7.000000000000000666e-02 -2.875167146226858747e-02
8.000000000000000167e-02 -3.302817072430878215e-02
8.999999999999999667e-02 -3.693703304267367121e-02
1.000000000000000056e-01 -4.015555732998857957e-02
1.100000000000000006e-01 -4.250740825862486805e-02
1.199999999999999956e-01 -4.351643594234810841e-02
1.300000000000000044e-01 -4.314714866198592069e-02
1.400000000000000133e-01 -4.087747819805875177e-02
1.499999999999999944e-01 -3.681544171956788875e-02
1.600000000000000033e-01 -3.063221882240026173e-02
1.700000000000000122e-01 -2.251519459734620601e-02
1.799999999999999933e-01 -1.247885127431148412e-02
1.900000000000000022e-01 -8.160284339692224290e-04
2.000000000000000111e-01 1.210200312802468467e-02
2.099999999999999922e-01 2.581555528419648624e-02
2.200000000000000011e-01 3.972856702119646755e-02
2.300000000000000100e-01 5.312550910761269091e-02
2.399999999999999911e-01 6.544949613277062372e-02
2.500000000000000000e-01 7.564243365271393349e-02
2.600000000000000089e-01 8.340807788137075129e-02
2.700000000000000178e-01 8.764926142139453646e-02
2.800000000000000266e-01 8.822881673022851812e-02
2.899999999999999800e-01 8.439737269244504403e-02
2.999999999999999889e-01 7.613711301484112071e-02
3.099999999999999978e-01 6.332944877644648696e-02
3.200000000000000067e-01 4.609723219069793154e-02
3.300000000000000155e-01 2.504586617254800709e-02
3.400000000000000244e-01 5.470389968242330911e-04
3.500000000000000333e-01 -2.622868336428354694e-02
3.599999999999999867e-01 -5.446816370320744366e-02
3.699999999999999956e-01 -8.282669069701650844e-02
3.800000000000000044e-01 -1.098724129525113780e-01
3.900000000000000133e-01 -1.344536646976408623e-01
4.000000000000000222e-01 -1.548251244143762639e-01
4.100000000000000311e-01 -1.699976380086913597e-01
4.199999999999999845e-01 -1.785147616916114011e-01
4.299999999999999933e-01 -1.794421713261721840e-01
4.400000000000000022e-01 -1.721971090448123076e-01
4.500000000000000111e-01 -1.558690822932713160e-01
4.600000000000000200e-01 -1.311179758817440089e-01
4.700000000000000289e-01 -9.717134883999664630e-02
4.799999999999999822e-01 -5.594569185742245127e-02
4.899999999999999911e-01 -7.097904544370810948e-03
5.000000000000000000e-01 4.673864108633726810e-02
5.100000000000000089e-01 1.046322447244734527e-01
5.200000000000000178e-01 1.641474456551506311e-01
5.300000000000000266e-01 2.232611476037640597e-01
5.400000000000000355e-01 2.796087988048497341e-01
5.500000000000000444e-01 3.309021239290342309e-01
5.600000000000000533e-01 3.746194085404741525e-01
5.700000000000000622e-01 4.091808483941811181e-01
5.799999999999999600e-01 4.317104722120481686e-01
5.899999999999999689e-01 4.422090696351814731e-01
5.999999999999999778e-01 4.374036605113550413e-01
6.099999999999999867e-01 4.191585733894870880e-01
6.199999999999999956e-01 3.847499864353405297e-01
6.300000000000000044e-01 3.369599576837163935e-01
6.400000000000000133e-01 2.749889009895934988e-01
6.500000000000000222e-01 2.015673350308990475e-01
6.600000000000000311e-01 1.179876221294833549e-01
6.700000000000000400e-01 2.699871861756087885e-02
6.800000000000000488e-01 -6.869024124395534114e-02
6.900000000000000577e-01 -1.660306705589812970e-01
7.000000000000000666e-01 -2.620124184620973851e-01
7.099999999999999645e-01 -3.529048697551968039e-01
7.199999999999999734e-01 -4.367041010907978249e-01
7.299999999999999822e-01 -5.086692210945640280e-01
7.399999999999999911e-01 -5.684732698053298616e-01
7.500000000000000000e-01 -6.118095950416687634e-01
7.600000000000000089e-01 -6.390385390346042804e-01
7.700000000000000178e-01 -6.476411717069101570e-01
7.800000000000000266e-01 -6.382379444045845895e-01
7.900000000000000355e-01 -6.107410699451966130e-01
8.000000000000000444e-01 -5.658970561434673030e-01
8.100000000000000533e-01 -5.059983831533044762e-01
8.200000000000000622e-01 -4.320755001957451991e-01
8.300000000000000711e-01 -3.480709829289745927e-01
8.399999999999999689e-01 -2.556982329404752785e-01
8.499999999999999778e-01 -1.592789091870847051e-01
8.599999999999999867e-01 -6.176991789546927569e-02
8.699999999999999956e-01 3.335649639628818219e-02
8.800000000000000044e-01 1.224047807009541744e-01
8.900000000000000133e-01 2.027947734159903648e-01
9.000000000000000222e-01 2.714000475890406827e-01
9.100000000000000311e-01 3.261151745639946364e-01
9.200000000000000400e-01 3.655762530574246383e-01
9.300000000000000488e-01 3.878822569544576604e-01
9.400000000000000577e-01 3.940804512239372004e-01
9.500000000000000666e-01 3.824680387174793084e-01
9.599999999999999645e-01 3.564469352503304433e-01
9.699999999999999734e-01 3.148030135482542402e-01
9.799999999999999822e-01 2.622092993008086625e-01
9.899999999999999911e-01 1.994304139492355799e-01
1.000000000000000000e+00 1.305276129478013247e-01
1.010000000000000009e+00 5.801807668121990169e-02
1.020000000000000018e+00 -1.458656662616623044e-02
1.030000000000000027e+00 -8.426175738519221803e-02
1.040000000000000036e+00 -1.477591543643292371e-01
1.050000000000000044e+00 -2.028859247949609812e-01
1.060000000000000053e+00 -2.463914345185860000e-01
1.070000000000000062e+00 -2.779797379780751254e-01
1.080000000000000071e+00 -2.943114701975642622e-01
1.090000000000000080e+00 -2.972720983934145078e-01
1.100000000000000089e+00 -2.843146725335115033e-01
1.110000000000000098e+00 -2.584401755597403594e-01
1.120000000000000107e+00 -2.191812899724397967e-01
1.130000000000000115e+00 -1.695127990284100439e-01
1.140000000000000124e+00 -1.110160758999199915e-01
1.150000000000000133e+00 -4.661127727197067472e-02
1.159999999999999920e+00 2.096184880405033493e-02
1.169999999999999929e+00 8.865464613148421602e-02
1.179999999999999938e+00 1.537910559646894215e-01
1.189999999999999947e+00 2.129418648832435423e-01
1.199999999999999956e+00 2.647211364889200391e-01
1.209999999999999964e+00 3.051624174673230883e-01
1.219999999999999973e+00 3.346399010750000236e-01
1.229999999999999982e+00 3.500291344097658519e-01
1.239999999999999991e+00 3.524191449520667208e-01
1.250000000000000000e+00 3.405645659715739182e-01
1.260000000000000009e+00 3.158695161273004648e-01
1.270000000000000018e+00 2.791621288122526634e-01
1.280000000000000027e+00 2.320750165569866463e-01
1.290000000000000036e+00 1.770395126566486899e-01
1.300000000000000044e+00 1.160609616387467541e-01
1.310000000000000053e+00 5.220018522409868716e-02
1.320000000000000062e+00 -1.188700467303983356e-02
1.330000000000000071e+00 -7.364953437485198540e-02
1.340000000000000080e+00 -1.297537916117250389e-01
1.350000000000000089e+00 -1.787422249565640275e-01
1.360000000000000098e+00 -2.175600656101450703e-01
1.370000000000000107e+00 -2.454642463094498239e-01
1.380000000000000115e+00 -2.607156264392049283e-01
1.390000000000000124e+00 -2.629783578211867812e-01
1.400000000000000133e+00 -2.523956650784046629e-01
1.409999999999999920e+00 -2.289231554732115426e-01
1.419999999999999929e+00 -1.945515301588344459e-01
1.429999999999999938e+00 -1.496398154898404831e-01
1.439999999999999947e+00 -9.740875143162218419e-02
1.449999999999999956e+00 -3.891453450990368934e-02
1.459999999999999964e+00 2.245647266565860625e-02
1.469999999999999973e+00 8.451674685044321955e-02
1.479999999999999982e+00 1.446547844133547200e-01
1.489999999999999991e+00 2.002464882227405207e-01
1.500000000000000000e+00 2.492474565759358329e-01
1.510000000000000009e+00 2.896759915694552823e-01
1.520000000000000018e+00 3.197962812845550062e-01
1.530000000000000027e+00 3.390948804866504851e-01
1.540000000000000036e+00 3.460068696512388908e-01
1.550000000000000044e+00 3.418388891659836504e-01
1.560000000000000053e+00 3.252559663469275497e-01
1.570000000000000062e+00 2.990390959066439036e-01
1.580000000000000071e+00 2.627551086929371671e-01
1.590000000000000080e+00 2.195188679817166866e-01
1.600000000000000089e+00 1.703600682180045900e-01
1.610000000000000098e+00 1.179549382802893426e-01
1.620000000000000107e+00 6.427139008308545287e-02
1.630000000000000115e+00 1.165573036248012360e-02
1.640000000000000124e+00 -3.794103101766759661e-02
1.650000000000000133e+00 -8.232499216360562866e-02
1.660000000000000142e+00 -1.204490622410488987e-01
1.669999999999999929e+00 -1.501494421134530188e-01
1.679999999999999938e+00 -1.718630893452012809e-01
1.689999999999999947e+00 -1.834845861243229459e-01
1.699999999999999956e+00 -1.867708087468557543e-01
1.709999999999999964e+00 -1.807358429695549995e-01
1.719999999999999973e+00 -1.673349242363141032e-01
1.729999999999999982e+00 -1.470405135696414567e-01
1.739999999999999991e+00 -1.217787199463808145e-01
1.750000000000000000e+00 -9.306111689560948863e-02
1.760000000000000009e+00 -6.281074493096142075e-02
1.770000000000000018e+00 -3.283144884931031571e-02
1.780000000000000027e+00 -5.161125419652838435e-03
1.790000000000000036e+00 1.892956652509003926e-02
1.800000000000000044e+00 3.718509711815747715e-02
1.810000000000000053e+00 4.942937204462423406e-02
1.820000000000000062e+00 5.352434131933257039e-02
1.830000000000000071e+00 5.019853751906902528e-02
1.840000000000000080e+00 3.829008056998561144e-02
1.850000000000000089e+00 1.881506448655674915e-02
1.860000000000000098e+00 -8.087072870359451882e-03
1.870000000000000107e+00 -4.124674439791693736e-02
1.880000000000000115e+00 -7.944018528299376380e-02
1.890000000000000124e+00 -1.213280591175284612e-01
1.900000000000000133e+00 -1.651656269143393363e-01
1.910000000000000142e+00 -2.093284715504217519e-01
1.919999999999999929e+00 -2.522918204647023876e-01
1.929999999999999938e+00 -2.920191431636785517e-01
1.939999999999999947e+00 -3.277375226178911305e-01
1.949999999999999956e+00 -3.574822284959685570e-01
1.959999999999999964e+00 -3.810550083655924181e-01
1.969999999999999973e+00 -3.972210335401031300e-01
1.979999999999999982e+00 -4.061017231188951415e-01
1.989999999999999991e+00 -4.075578684927524953e-01
2.000000000000000000e+00 -4.019047680515560050e-01
2.010000000000000231e+00 -3.900782583593649377e-01
2.020000000000000018e+00 -3.725844513759768994e-01
2.030000000000000249e+00 -3.510637491062610360e-01
2.040000000000000036e+00 -3.263032732388304602e-01
2.049999999999999822e+00 -3.000422491993823271e-01
2.060000000000000053e+00 -2.734744572543427177e-01
2.069999999999999840e+00 -2.478850130354753045e-01
2.080000000000000071e+00 -2.245894671240490914e-01
2.089999999999999858e+00 -2.043577157934509669e-01
2.100000000000000089e+00 -1.880897632360805927e-01
2.109999999999999876e+00 -1.761667033099951762e-01
2.120000000000000107e+00 -1.686932470165682652e-01
2.129999999999999893e+00 -1.657172823464756750e-01
2.140000000000000124e+00 -1.664941786857775941e-01
2.149999999999999911e+00 -1.706928201012795077e-01
2.160000000000000142e+00 -1.770047577018439844e-01
2.169999999999999929e+00 -1.845917632366392003e-01
2.180000000000000160e+00 -1.920845077013601243e-01
2.189999999999999947e+00 -1.981140406057702585e-01
2.200000000000000178e+00 -2.016071057771795239e-01
2.209999999999999964e+00 -2.011267854711989156e-01
2.220000000000000195e+00 -1.958383933084965611e-01
2.229999999999999982e+00 -1.848294161022872306e-01
2.240000000000000213e+00 -1.674396045849237125e-01
2.250000000000000000e+00 -1.436999726741446937e-01
2.260000000000000231e+00 -1.131417935984346812e-01
2.270000000000000018e+00 -7.684494274126893454e-02
2.280000000000000249e+00 -3.467098503104514007e-02
2.290000000000000036e+00 1.155799028061938946e-02
2.300000000000000266e+00 6.126691805386760836e-02
2.310000000000000053e+00 1.125356727488849712e-01
2.319999999999999840e+00 1.639526898039813940e-01
2.330000000000000071e+00 2.138201216448249176e-01
2.339999999999999858e+00 2.604054514434623879e-01
2.350000000000000089e+00 3.021090571640346334e-01
2.359999999999999876e+00 3.376061308596637334e-01
2.370000000000000107e+00 3.652633123214241162e-01
2.379999999999999893e+00 3.847900126915304031e-01
2.390000000000000124e+00 3.944682688449797636e-01
2.399999999999999911e+00 3.953902285638494774e-01
2.410000000000000142e+00 3.858475556664479056e-01
2.419999999999999929e+00 3.680159210135985348e-01
2.430000000000000160e+00 3.412318322663698833e-01
2.439999999999999947e+00 3.076512932927980004e-01
2.450000000000000178e+00 2.679376298830173919e-01
2.459999999999999964e+00 2.240702657205350945e-01
2.470000000000000195e+00 1.775896654108135575e-01
2.479999999999999982e+00 1.303974288703859397e-01
2.490000000000000213e+00 8.419222550476487821e-02
2.500000000000000000e+00 4.095632502648588469e-02
2.510000000000000231e+00 1.789895423854982043e-03
2.520000000000000018e+00 -3.112121023472936773e-02
2.530000000000000249e+00 -5.776835705754775757e-02
2.540000000000000036e+00 -7.606313358338467889e-02
2.550000000000000266e+00 -8.686057313432259119e-02
2.560000000000000053e+00 -8.902283402909567933e-02
2.569999999999999840e+00 -8.361922742561654631e-02
2.580000000000000071e+00 -7.077230049870769646e-02
2.589999999999999858e+00 -5.164598741685565847e-02
2.600000000000000089e+00 -2.741029631770919989e-02
2.609999999999999876e+00 6.504120914416714611e-04
2.620000000000000107e+00 3.085059057399791582e-02
2.629999999999999893e+00 6.166498427262898790e-02
2.640000000000000124e+00 9.159083850805029015e-02
2.649999999999999911e+00 1.187305700043304602e-01
2.660000000000000142e+00 1.422828174324274053e-01
2.669999999999999929e+00 1.603883498011802466e-01
2.680000000000000160e+00 1.728216886445318734e-01
2.689999999999999947e+00 1.783893223053314436e-01
2.700000000000000178e+00 1.771931749632541520e-01
2.709999999999999964e+00 1.690757050125386296e-01
2.720000000000000195e+00 1.543537276600340791e-01
2.729999999999999982e+00 1.339079992938572439e-01
2.740000000000000213e+00 1.082843807717638329e-01
2.750000000000000000e+00 7.906076222096927730e-02
2.760000000000000231e+00 4.712903332247669885e-02
2.770000000000000018e+00 1.418304106421366083e-02
2.780000000000000249e+00 -1.839622638612321837e-02
2.790000000000000036e+00 -4.932018617647068032e-02
2.800000000000000266e+00 -7.701956425111552984e-02
2.810000000000000053e+00 -1.006341903498398360e-01
2.819999999999999840e+00 -1.189810764775143942e-01
2.830000000000000071e+00 -1.314756662609637139e-01
2.839999999999999858e+00 -1.377748637819747046e-01
2.850000000000000089e+00 -1.374822682784812011e-01
2.859999999999999876e+00 -1.312548266976557576e-01
2.870000000000000107e+00 -1.189040646970552229e-01
2.879999999999999893e+00 -1.019150985995520842e-01
2.890000000000000124e+00 -8.043135992136489498e-02
2.899999999999999911e+00 -5.625623803355413177e-02
2.910000000000000142e+00 -3.020840139079207509e-02
2.919999999999999929e+00 -3.785452858329296875e-03
2.930000000000000160e+00 2.176936292927099739e-02
2.939999999999999947e+00 4.525593900141110931e-02
2.950000000000000178e+00 6.556723538071256019e-02
2.959999999999999964e+00 8.169861160758186414e-02
2.970000000000000195e+00 9.317363142072884741e-02
2.979999999999999982e+00 9.912282194729921114e-02
2.990000000000000213e+00 9.996910567922454027e-02
3.000000000000000000e+00 9.501092706908513541e-02
3.010000000000000231e+00 8.548175626342247035e-02
3.020000000000000018e+00 7.115007339265225217e-02
3.030000000000000249e+00 5.354501671229038029e-02
3.040000000000000036e+00 3.322243077322159510e-02
3.050000000000000266e+00 1.156930637195646705e-02
3.060000000000000053e+00 -1.032861883626807857e-02
3.070000000000000284e+00 -3.119376120172472067e-02
3.080000000000000071e+00 -4.993536128734424318e-02
3.089999999999999858e+00 -6.530933788539822205e-02
3.100000000000000089e+00 -7.673473746442383003e-02
3.109999999999999876e+00 -8.295261645469807765e-02
3.120000000000000107e+00 -8.424705686249453485e-02
3.129999999999999893e+00 -7.938182915387159699e-02
3.140000000000000124e+00 -6.943690168937134699e-02
3.149999999999999911e+00 -5.382150183494517626e-02
3.160000000000000142e+00 -3.377410865910553117e-02
3.169999999999999929e+00 -9.599150021693012708e-03
3.180000000000000160e+00 1.747356221342279137e-02
3.189999999999999947e+00 4.648127480491615754e-02
3.200000000000000178e+00 7.617603421855888290e-02
3.209999999999999964e+00 1.054044656783814926e-01
3.220000000000000195e+00 1.328183099387298949e-01
3.229999999999999982e+00 1.576060256453469255e-01
3.240000000000000213e+00 1.782477588805111701e-01
3.250000000000000000e+00 1.946574225199533270e-01
3.260000000000000231e+00 2.053348747661071505e-01
3.270000000000000018e+00 2.108174579406232596e-01
3.280000000000000249e+00 2.102417379393921038e-01
3.290000000000000036e+00 2.043172688152925798e-01
3.300000000000000266e+00 1.930688255306366730e-01
3.310000000000000053e+00 1.772898499309353837e-01
3.320000000000000284e+00 1.577686708737567056e-01
3.330000000000000071e+00 1.353935551792590508e-01
3.339999999999999858e+00 1.113519231786635338e-01
3.350000000000000089e+00 8.670486187472672968e-02
3.359999999999999876e+00 6.254205483925977249e-02
3.370000000000000107e+00 4.018420831559785245e-02
3.379999999999999893e+00 2.023586370423375441e-02
3.390000000000000124e+00 4.005297212851145240e-03
3.399999999999999911e+00 -8.334691167490205707e-03
3.410000000000000142e+00 -1.594018771577489571e-02
3.419999999999999929e+00 -1.889333492362449754e-02
3.430000000000000160e+00 -1.708699488212068324e-02
3.439999999999999947e+00 -1.077968070408048817e-02
3.450000000000000178e+00 -6.015121596904407855e-04
3.459999999999999964e+00 1.300282500259091444e-02
3.470000000000000195e+00 2.891950063598457479e-02
3.479999999999999982e+00 4.643743134739791029e-02
3.490000000000000213e+00 6.438520801746691613e-02
3.500000000000000000e+00 8.170281383716780643e-02
3.510000000000000231e+00 9.752907312785918936e-02
3.520000000000000018e+00 1.107069907522492125e-01
3.530000000000000249e+00 1.206910062270869638e-01
3.540000000000000036e+00 1.266553766155798788e-01
3.550000000000000266e+00 1.282694190396017897e-01
3.560000000000000053e+00 1.253585678485304999e-01
3.570000000000000284e+00 1.177591555056085593e-01
3.580000000000000071e+00 1.060368429951738384e-01
3.589999999999999858e+00 9.022927298939473206e-02
3.600000000000000089e+00 7.147442978861212604e-02
3.609999999999999876e+00 5.012189172127739373e-02
3.620000000000000107e+00 2.748632651796292445e-02
3.629999999999999893e+00 4.415038637575995073e-03
3.640000000000000124e+00 -1.800907841544721263e-02
3.649999999999999911e+00 -3.868942646002588442e-02
3.660000000000000142e+00 -5.675128344866756103e-02
3.669999999999999929e+00 -7.130453994367433324e-02
3.680000000000000160e+00 -8.159828546973107999e-02
3.689999999999999947e+00 -8.733503734738816415e-02
3.700000000000000178e+00 -8.784548758084717579e-02
3.709999999999999964e+00 -8.361723949710740678e-02
3.720000000000000195e+00 -7.410154583429846842e-02
3.729999999999999982e+00 -6.046792533965462263e-02
3.740000000000000213e+00 -4.254641142308247803e-02
3.750000000000000000e+00 -2.173307524165003085e-02
3.760000000000000231e+00 1.472485720185472829e-03
3.770000000000000018e+00 2.584136540077296151e-02
3.780000000000000249e+00 5.042690519504993557e-02
3.790000000000000036e+00 7.412377409493930980e-02
3.800000000000000266e+00 9.599089614440088625e-02
3.810000000000000053e+00 1.149701448987806018e-01
3.820000000000000284e+00 1.305618758723559591e-01
3.830000000000000071e+00 1.417050878290756488e-01
3.839999999999999858e+00 1.486376011810385811e-01
3.850000000000000089e+00 1.503195495174240170e-01
3.859999999999999876e+00 1.476670413979065399e-01
