# [DEFAULT]
# # input and output specifications
# dataformat = QA
# outputtype = gr
# 
# # PDF calculation setup
# mode = xray
# wavelength = 
# composition = Cl4.0Cr1.0Na1.0
# bgscale = 1.0
# rpoly = 0.9
# qmaxinst = 28
# qmin = 0.0
# qmax = 22
# rmin = 0.0
# rmax = 30.0
# rstep = 0.01
# 
# # End of config --------------------------------------------------------------
# 
# #### start data
# #S 1
# #L r(Å)  G(Å$^$)
# 
0.000000000000000000e+00 0.000000000000000000e+00
1.000000000000000021e-02 -4.472944766710568697e-03
2.000000000000000042e-02 -8.974941222366503851e-03
2.999999999999999889e-02 -1.352936946529064398e-02
4.000000000000000083e-02 -1.812374366909210582e-02
5.000000000000000278e-02 -2.272085944106295302e-02
5.999999999999999778e-02 -2.723625413532683795e-02
7.000000000000000666e-02 -3.154909281828408713e-02
8.000000000000000167e-02 -3.547623939969640761e-02
8.999999999999999667e-02 -3.884970142810541954e-02
1.000000000000000056e-01 -4.136425780536150121e-02
1.100000000000000006e-01 -4.290088210612808678e-02
1.199999999999999956e-01 -4.302212032526124552e-02
1.300000000000000044e-01 -4.175581404805454172e-02
1.400000000000000133e-01 -3.864233128800004247e-02
1.499999999999999944e-01 -3.383755617966818091e-02
1.600000000000000033e-01 -2.707944659424957323e-02
1.700000000000000122e-01 -1.858614861515598890e-02
1.799999999999999933e-01 -8.414954842642600324e-03
1.900000000000000022e-01 3.125533814569591250e-03
2.000000000000000111e-01 1.566500326058287845e-02
2.099999999999999922e-01 2.874403790238623524e-02
2.200000000000000011e-01 4.181398260553344237e-02
2.300000000000000100e-01 5.418119747715942347e-02
2.399999999999999911e-01 6.536591786146458971e-02
2.500000000000000000e-01 7.436227340796358609e-02
2.600000000000000089e-01 8.095175952240918349e-02
2.700000000000000178e-01 8.411793378719746583e-02
2.800000000000000266e-01 8.378258024542126203e-02
2.899999999999999800e-01 7.927489268614598683e-02
2.999999999999999889e-01 7.061885524716003670e-02
3.099999999999999978e-01 5.773611905607182321e-02
3.200000000000000067e-01 4.077369705604530492e-02
3.300000000000000155e-01 2.031618956738922774e-02
3.400000000000000244e-01 -3.265024472321861361e-03
3.500000000000000333e-01 -2.888069448406158785e-02
3.599999999999999867e-01 -5.575708557615201982e-02
3.699999999999999956e-01 -8.266403715963135945e-02
3.800000000000000044e-01 -1.082678244691437919e-01
3.900000000000000133e-01 -1.315271877565526992e-01
4.000000000000000222e-01 -1.508356339256453349e-01
4.100000000000000311e-01 -1.653025739756641133e-01
4.199999999999999845e-01 -1.735989906729627774e-01
4.299999999999999933e-01 -1.748815856809389224e-01
4.400000000000000022e-01 -1.686267055958391436e-01
4.500000000000000111e-01 -1.540054706506118198e-01
4.600000000000000200e-01 -1.316289567267969751e-01
4.700000000000000289e-01 -1.007813644909016232e-01
4.799999999999999822e-01 -6.321669766991447337e-02
4.899999999999999911e-01 -1.859004753144723188e-02
5.000000000000000000e-01 3.069698937330314625e-02
5.100000000000000089e-01 8.384317211779887535e-02
5.200000000000000178e-01 1.386432472545073846e-01
5.300000000000000266e-01 1.933096064659711455e-01
5.400000000000000355e-01 2.457212923310020669e-01
5.500000000000000444e-01 2.938441352433258658e-01
5.600000000000000533e-01 3.354382655802225499e-01
5.700000000000000622e-01 3.690904632238330985e-01
5.799999999999999600e-01 3.922660623841309757e-01
5.899999999999999689e-01 4.049457484979293587e-01
5.999999999999999778e-01 4.042607207492896482e-01
6.099999999999999867e-01 3.918353855961111964e-01
6.199999999999999956e-01 3.652931070007170988e-01
6.300000000000000044e-01 3.270709786083541570e-01
6.400000000000000133e-01 2.764831387563698173e-01
6.500000000000000222e-01 2.159258763040573514e-01
6.600000000000000311e-01 1.465421541476562839e-01
6.700000000000000400e-01 7.074283267659269014e-02
6.800000000000000488e-01 -9.101524927243392904e-03
6.900000000000000577e-01 -9.032665012179770525e-02
7.000000000000000666e-01 -1.703175918738911720e-01
7.099999999999999645e-01 -2.458329481902059299e-01
7.199999999999999734e-01 -3.151551208449735464e-01
7.299999999999999822e-01 -3.741944041676789068e-01
7.399999999999999911e-01 -4.227091115624108664e-01
7.500000000000000000e-01 -4.570266179304582344e-01
7.600000000000000089e-01 -4.775181949380519209e-01
7.700000000000000178e-01 -4.820946627577291643e-01
7.800000000000000266e-01 -4.713767603211905244e-01
7.900000000000000355e-01 -4.453903470204313431e-01
8.000000000000000444e-01 -4.049005699185439511e-01
8.100000000000000533e-01 -3.519652794469568247e-01
8.200000000000000622e-01 -2.876425570931360753e-01
8.300000000000000711e-01 -2.153460199748158388e-01
8.399999999999999689e-01 -1.367793487341283643e-01
8.499999999999999778e-01 -5.558986716940059192e-02
8.599999999999999867e-01 2.544004273023131590e-02
8.699999999999999956e-01 1.034438074400952229e-01
8.800000000000000044e-01 1.750939007582351103e-01
8.900000000000000133e-01 2.382804334815034064e-01
9.000000000000000222e-01 2.902975167470571161e-01
9.100000000000000311e-01 3.294326947298631403e-01
9.200000000000000400e-01 3.546232468324018172e-01
9.300000000000000488e-01 3.643352763795682514e-01
9.400000000000000577e-01 3.596696197874869050e-01
9.500000000000000666e-01 3.392913935367142253e-01
9.599999999999999645e-01 3.063515922628463062e-01
9.699999999999999734e-01 2.599961853723144478e-01
9.799999999999999822e-01 2.044279477060806649e-01
9.899999999999999911e-01 1.405438621448202863e-01
1.000000000000000000e+00 7.196550956325932502e-02
1.010000000000000009e+00 1.076655968308866396e-03
1.020000000000000018e+00 -6.900040017384249935e-02
1.030000000000000027e+00 -1.355395695032705627e-01
1.040000000000000036e+00 -1.956506678474337346e-01
1.050000000000000044e+00 -2.474645044451661835e-01
1.060000000000000053e+00 -2.880885013260329197e-01
1.070000000000000062e+00 -3.174365640817856660e-01
1.080000000000000071e+00 -3.325514268068433532e-01
1.090000000000000080e+00 -3.353316135240425044e-01
1.100000000000000089e+00 -3.235779941174068419e-01
1.110000000000000098e+00 -3.001557466153561560e-01
1.120000000000000107e+00 -2.647744401753527321e-01
1.130000000000000115e+00 -2.202292797720028228e-01
1.140000000000000124e+00 -1.680625873356880740e-01
1.150000000000000133e+00 -1.109926140052825139e-01
1.159999999999999920e+00 -5.154612950569945062e-02
1.169999999999999929e+00 7.458057966744183545e-03
1.179999999999999938e+00 6.363540232258575735e-02
1.189999999999999947e+00 1.138376157243772002e-01
1.199999999999999956e+00 1.569268698594868672e-01
1.209999999999999964e+00 1.892945669091312955e-01
1.219999999999999973e+00 2.114365967639191546e-01
1.229999999999999982e+00 2.205762761631170354e-01
1.239999999999999991e+00 2.178391765988060835e-01
1.250000000000000000e+00 2.022064641096724680e-01
1.260000000000000009e+00 1.750761540864259891e-01
1.270000000000000018e+00 1.373169514891914855e-01
1.280000000000000027e+00 9.053390614012324367e-02
1.290000000000000036e+00 3.700775939518688440e-02
1.300000000000000044e+00 -2.130661894508067977e-02
1.310000000000000053e+00 -8.163858587007356837e-02
1.320000000000000062e+00 -1.414266303683344717e-01
1.330000000000000071e+00 -1.984523079954075286e-01
1.340000000000000080e+00 -2.495617098198911754e-01
1.350000000000000089e+00 -2.935691688024243962e-01
1.360000000000000098e+00 -3.276590240570395607e-01
1.370000000000000107e+00 -3.512823439875981113e-01
1.380000000000000115e+00 -3.629083056692331000e-01
1.390000000000000124e+00 -3.623468038576395100e-01
1.400000000000000133e+00 -3.498363114368073790e-01
1.409999999999999920e+00 -3.254508317748112667e-01
1.419999999999999929e+00 -2.911220387700245715e-01
1.429999999999999938e+00 -2.473046682536772511e-01
1.439999999999999947e+00 -1.970142854244572028e-01
1.449999999999999956e+00 -1.413667070062548381e-01
1.459999999999999964e+00 -8.346806228079067802e-02
1.469999999999999973e+00 -2.545004900438943909e-02
1.479999999999999982e+00 3.031670016198758158e-02
1.489999999999999991e+00 8.135971958557566830e-02
1.500000000000000000e+00 1.258357903272210032e-01
1.510000000000000009e+00 1.619340515153695481e-01
1.520000000000000018e+00 1.880958775107989256e-01
1.530000000000000027e+00 2.039216706502880450e-01
1.540000000000000036e+00 2.080146326165472348e-01
1.550000000000000044e+00 2.016844508208933962e-01
1.560000000000000053e+00 1.837608641584855540e-01
1.570000000000000062e+00 1.569099798838588800e-01
1.580000000000000071e+00 1.208183125609183506e-01
1.590000000000000080e+00 7.843175429358753559e-02
1.600000000000000089e+00 3.079460946928817833e-02
1.610000000000000098e+00 -1.957393184750711584e-02
1.620000000000000107e+00 -7.078570761767943864e-02
1.630000000000000115e+00 -1.206347753954129381e-01
1.640000000000000124e+00 -1.672940138306524827e-01
1.650000000000000133e+00 -2.086980892214396477e-01
1.660000000000000142e+00 -2.439102149510639361e-01
1.669999999999999929e+00 -2.708902897334141691e-01
1.679999999999999938e+00 -2.901239208487637611e-01
1.689999999999999947e+00 -2.996263459505365545e-01
1.699999999999999956e+00 -3.011288089957097625e-01
1.709999999999999964e+00 -2.937183493823790625e-01
1.719999999999999973e+00 -2.792904647104425542e-01
1.729999999999999982e+00 -2.583176165905052279e-01
1.739999999999999991e+00 -2.326494736899809568e-01
1.750000000000000000e+00 -2.037349205495053162e-01
1.760000000000000009e+00 -1.734081046039366303e-01
1.770000000000000018e+00 -1.433808344809482938e-01
1.780000000000000027e+00 -1.155864321400694589e-01
1.790000000000000036e+00 -9.121801051117876813e-02
1.800000000000000044e+00 -7.240515132205890825e-02
1.810000000000000053e+00 -5.929589958404059280e-02
1.820000000000000062e+00 -5.389554130587700248e-02
1.830000000000000071e+00 -5.549310373248338840e-02
1.840000000000000080e+00 -6.515772763831535752e-02
1.850000000000000089e+00 -8.190306791440617185e-02
1.860000000000000098e+00 -1.055609112541587291e-01
1.870000000000000107e+00 -1.349908737803005854e-01
1.880000000000000115e+00 -1.690021457278197414e-01
1.890000000000000124e+00 -2.062770062865584009e-01
1.900000000000000133e+00 -2.451464198969188768e-01
1.910000000000000142e+00 -2.839970000759553526e-01
1.919999999999999929e+00 -3.213954874321525712e-01
1.929999999999999938e+00 -3.553035401667831716e-01
1.939999999999999947e+00 -3.850260788766314834e-01
1.949999999999999956e+00 -4.085948805451450894e-01
1.959999999999999964e+00 -4.258486402961342288e-01
1.969999999999999973e+00 -4.355414529994974804e-01
1.979999999999999982e+00 -4.377951305590711550e-01
1.989999999999999991e+00 -4.324487640215263773e-01
2.000000000000000000e+00 -4.197870765512995428e-01
2.010000000000000231e+00 -4.007254816223969618e-01
2.020000000000000018e+00 -3.757139894729873419e-01
2.030000000000000249e+00 -3.463958740064008723e-01
2.040000000000000036e+00 -3.134852887361553875e-01
2.049999999999999822e+00 -2.787647033650973993e-01
2.060000000000000053e+00 -2.433687335209704095e-01
2.069999999999999840e+00 -2.086569256957989671e-01
2.080000000000000071e+00 -1.759454066995263244e-01
2.089999999999999858e+00 -1.460942519298360776e-01
2.100000000000000089e+00 -1.200754880617071335e-01
2.109999999999999876e+00 -9.838812799083455907e-02
2.120000000000000107e+00 -8.125903950992874325e-02
2.129999999999999893e+00 -6.890123484055020453e-02
2.140000000000000124e+00 -6.069484834706949383e-02
2.149999999999999911e+00 -5.654479639822190123e-02
2.160000000000000142e+00 -5.520409698766417378e-02
2.169999999999999929e+00 -5.616246073070101791e-02
2.180000000000000160e+00 -5.801704546962869330e-02
2.189999999999999947e+00 -5.971389116608927239e-02
2.200000000000000178e+00 -6.012708481436821600e-02
2.209999999999999964e+00 -5.802126953138479065e-02
2.220000000000000195e+00 -5.251746780561193650e-02
2.229999999999999982e+00 -4.273793397415989737e-02
2.240000000000000213e+00 -2.798919842518412388e-02
2.250000000000000000e+00 -8.159102867611458046e-03
2.260000000000000231e+00 1.725956441709949538e-02
2.270000000000000018e+00 4.747330072942397561e-02
2.280000000000000249e+00 8.269905207560848681e-02
2.290000000000000036e+00 1.214624004182804640e-01
2.300000000000000266e+00 1.633663205098146720e-01
2.310000000000000053e+00 2.067985704895735355e-01
2.319999999999999840e+00 2.506196628323394959e-01
2.330000000000000071e+00 2.933769048893078435e-01
2.339999999999999858e+00 3.336116477877231201e-01
2.350000000000000089e+00 3.699406511105871598e-01
2.359999999999999876e+00 4.012092206278080053e-01
2.370000000000000107e+00 4.259981074219345021e-01
2.379999999999999893e+00 4.440059355344264658e-01
2.390000000000000124e+00 4.537342120827180803e-01
2.399999999999999911e+00 4.560539425432104110e-01
2.410000000000000142e+00 4.494636518041601470e-01
2.419999999999999929e+00 4.357710776041647804e-01
2.430000000000000160e+00 4.143563474319320039e-01
2.439999999999999947e+00 3.870272972082267060e-01
2.450000000000000178e+00 3.542998316865075825e-01
2.459999999999999964e+00 3.178374925659779304e-01
2.470000000000000195e+00 2.789210473393259893e-01
2.479999999999999982e+00 2.391432255096379300e-01
2.490000000000000213e+00 1.999433773522702740e-01
2.500000000000000000e+00 1.629689038803224799e-01
2.510000000000000231e+00 1.291752561230429253e-01
2.520000000000000018e+00 1.003609094018349246e-01
2.530000000000000249e+00 7.657389868142039369e-02
2.540000000000000036e+00 5.951412005009880379e-02
2.550000000000000266e+00 4.849573183708358326e-02
2.560000000000000053e+00 4.442042408660820674e-02
2.569999999999999840e+00 4.639660056843503827e-02
2.580000000000000071e+00 5.427731372088218792e-02
2.589999999999999858e+00 6.706543536497303060e-02
2.600000000000000089e+00 8.375564127994103436e-02
2.609999999999999876e+00 1.032243830681622426e-01
2.620000000000000107e+00 1.240697401498978142e-01
2.629999999999999893e+00 1.449443397613825457e-01
2.640000000000000124e+00 1.646488329189716993e-01
2.649999999999999911e+00 1.815108762786100671e-01
2.660000000000000142e+00 1.949603777107256353e-01
2.669999999999999929e+00 2.033990020195499127e-01
2.680000000000000160e+00 2.067371617754051871e-01
2.689999999999999947e+00 2.039996325377274600e-01
2.700000000000000178e+00 1.953683663878696131e-01
2.709999999999999964e+00 1.807899246760489298e-01
2.720000000000000195e+00 1.606351653789533374e-01
2.729999999999999982e+00 1.357441735241142200e-01
2.740000000000000213e+00 1.067045685503576341e-01
2.750000000000000000e+00 7.492213502834829675e-02
2.760000000000000231e+00 4.131586242361190431e-02
2.770000000000000018e+00 7.332812921200203109e-03
2.780000000000000249e+00 -2.566819933824919520e-02
2.790000000000000036e+00 -5.662932012522969849e-02
2.800000000000000266e+00 -8.407234030989420293e-02
2.810000000000000053e+00 -1.073017166497070851e-01
2.819999999999999840e+00 -1.252470113504650928e-01
2.830000000000000071e+00 -1.374348052502445960e-01
2.839999999999999858e+00 -1.435991699027425184e-01
2.850000000000000089e+00 -1.434128982428092003e-01
2.859999999999999876e+00 -1.375418350632252318e-01
2.870000000000000107e+00 -1.258289465368531979e-01
2.879999999999999893e+00 -1.096987558145700731e-01
2.890000000000000124e+00 -8.928332976656348785e-02
2.899999999999999911e+00 -6.628633976248757276e-02
2.910000000000000142e+00 -4.145704262891120040e-02
2.919999999999999929e+00 -1.619565155023856493e-02
2.930000000000000160e+00 8.358497320935825980e-03
2.939999999999999947e+00 3.109429361892325147e-02
2.950000000000000178e+00 5.099618728151697478e-02
2.959999999999999964e+00 6.714178731613504314e-02
2.970000000000000195e+00 7.908953359274301098e-02
2.979999999999999982e+00 8.604484990849801951e-02
2.990000000000000213e+00 8.838319622318750735e-02
3.000000000000000000e+00 8.546222808525616443e-02
3.010000000000000231e+00 7.839277734851239632e-02
3.020000000000000018e+00 6.695401806654047161e-02
3.030000000000000249e+00 5.252419935188340494e-02
3.040000000000000036e+00 3.559056976412771495e-02
3.050000000000000266e+00 1.739911191122423331e-02
3.060000000000000053e+00 -1.085989735930095387e-03
3.070000000000000284e+00 -1.872423928959915385e-02
3.080000000000000071e+00 -3.454500958058626114e-02
3.089999999999999858e+00 -4.744740922778795111e-02
3.100000000000000089e+00 -5.691340930411406540e-02
3.109999999999999876e+00 -6.184031868972528212e-02
3.120000000000000107e+00 -6.247637861486504685e-02
3.129999999999999893e+00 -5.775217403373662101e-02
3.140000000000000124e+00 -4.861934035707145274e-02
3.149999999999999911e+00 -3.458501331264626083e-02
3.160000000000000142e+00 -1.674451921789973236e-02
3.169999999999999929e+00 4.607133469552171685e-03
3.180000000000000160e+00 2.837817676857058366e-02
3.189999999999999947e+00 5.370376661107346961e-02
3.200000000000000178e+00 7.947297550399570754e-02
3.209999999999999964e+00 1.046713625165653638e-01
3.220000000000000195e+00 1.280987019851243802e-01
3.229999999999999982e+00 1.490640318694655964e-01
3.240000000000000213e+00 1.662197665107549849e-01
3.250000000000000000e+00 1.795324636180647693e-01
3.260000000000000231e+00 1.876869386999330258e-01
3.270000000000000018e+00 1.912043344955605961e-01
3.280000000000000249e+00 1.893538733448632827e-01
3.290000000000000036e+00 1.828055944472930794e-01
3.300000000000000266e+00 1.716259808839415979e-01
3.310000000000000053e+00 1.565604645832727182e-01
3.320000000000000284e+00 1.383457004389617162e-01
3.330000000000000071e+00 1.178172543514664217e-01
3.339999999999999858e+00 9.604227555471227251e-02
3.350000000000000089e+00 7.401887827858190383e-02
3.359999999999999876e+00 5.269165423293535599e-02
3.370000000000000107e+00 3.329778569031385804e-02
3.379999999999999893e+00 1.631951003306805759e-02
3.390000000000000124e+00 2.960044733084337375e-03
3.399999999999999911e+00 -6.683197788975885588e-03
3.410000000000000142e+00 -1.185901266229280777e-02
3.419999999999999929e+00 -1.269172690317598926e-02
3.430000000000000160e+00 -9.119961111541355359e-03
3.439999999999999947e+00 -1.423902220332080599e-03
3.450000000000000178e+00 9.782111700157181816e-03
3.459999999999999964e+00 2.404569997556444544e-02
3.470000000000000195e+00 4.032253811778994251e-02
3.479999999999999982e+00 5.790730773678622739e-02
3.490000000000000213e+00 7.572438397162147006e-02
3.500000000000000000e+00 9.274078632535176503e-02
3.510000000000000231e+00 1.081797112185179238e-01
3.520000000000000018e+00 1.209296839603095503e-01
3.530000000000000249e+00 1.304985798167900279e-01
3.540000000000000036e+00 1.360990347955010615e-01
3.550000000000000266e+00 1.374248375467311267e-01
3.560000000000000053e+00 1.343097102959855127e-01
3.570000000000000284e+00 1.265853514628975107e-01
3.580000000000000071e+00 1.147898098523888188e-01
3.589999999999999858e+00 9.892230597124228308e-02
3.600000000000000089e+00 8.007142114952686685e-02
3.609999999999999876e+00 5.850580322755306872e-02
3.620000000000000107e+00 3.549234548215593477e-02
3.629999999999999893e+00 1.176745746866227245e-02
3.640000000000000124e+00 -1.162627309113554476e-02
3.649999999999999911e+00 -3.369760393153097694e-02
3.660000000000000142e+00 -5.360977053369572060e-02
3.669999999999999929e+00 -7.053456219572681873e-02
3.680000000000000160e+00 -8.375905252854518035e-02
3.689999999999999947e+00 -9.297696695925573851e-02
3.700000000000000178e+00 -9.755387723754889440e-02
3.709999999999999964e+00 -9.789035739965058769e-02
3.720000000000000195e+00 -9.345797487711664242e-02
3.729999999999999982e+00 -8.528145517668189735e-02
3.740000000000000213e+00 -7.316638626276379676e-02
3.750000000000000000e+00 -5.835455083153043288e-02
3.760000000000000231e+00 -4.125553443715924279e-02
3.770000000000000018e+00 -2.296537659687237359e-02
3.780000000000000249e+00 -4.307337199875208023e-03
3.790000000000000036e+00 1.373500085329078420e-02
3.800000000000000266e+00 3.032493372183298758e-02
3.810000000000000053e+00 4.452618848137866042e-02
3.820000000000000284e+00 5.587699691348165659e-02
3.830000000000000071e+00 6.344419097110699790e-02
3.839999999999999858e+00 6.740731838193830816e-02
3.850000000000000089e+00 6.685602880348351373e-02
3.859999999999999876e+00 6.256656640614777221e-02
