# [DEFAULT]
# # input and output specifications
# dataformat = QA
# outputtype = gr
# 
# # PDF calculation setup
# mode = xray
# wavelength = 
# composition = Cl4.0Cr1.0Na1.0
# bgscale = 1.0
# rpoly = 0.9
# qmaxinst = 28
# qmin = 0.0
# qmax = 22
# rmin = 0.0
# rmax = 30.0
# rstep = 0.01
# 
# # End of config --------------------------------------------------------------
# 
# #### start data
# #S 1
# #L r(Å)  G(Å$^$)
# 
0.000000000000000000e+00 0.000000000000000000e+00
1.000000000000000021e-02 -2.961095033506565537e-03
2.000000000000000042e-02 -6.037488424522654586e-03
2.999999999999999889e-02 -9.357295963928480287e-03
4.000000000000000083e-02 -1.296152521926564015e-02
5.000000000000000278e-02 -1.689638477480762471e-02
5.999999999999999778e-02 -2.110520179686385667e-02
7.000000000000000666e-02 -2.549450460467034621e-02
8.000000000000000167e-02 -2.988734278585152698e-02
8.999999999999999667e-02 -3.407465245778977525e-02
1.000000000000000056e-01 -3.773356094969530783e-02
1.100000000000000006e-01 -4.064980435089968897e-02
1.199999999999999956e-01 -4.233614093280013008e-02
1.300000000000000044e-01 -4.270792110145996134e-02
1.400000000000000133e-01 -4.121397282433800213e-02
1.499999999999999944e-01 -3.791865441987467278e-02
1.600000000000000033e-01 -3.245122340201008621e-02
1.700000000000000122e-01 -2.496469113177971280e-02
1.799999999999999933e-01 -1.543555643521815277e-02
1.900000000000000022e-01 -4.128738926007752968e-03
2.000000000000000111e-01 8.601951804356230968e-03
2.099999999999999922e-01 2.231979083933070818e-02
2.200000000000000011e-01 3.641604837078772638e-02
2.300000000000000100e-01 5.019153240866324611e-02
2.399999999999999911e-01 6.304713549239654435e-02
2.500000000000000000e-01 7.392904104060396553e-02
2.600000000000000089e-01 8.248312262310979193e-02
2.700000000000000178e-01 8.758858465480313937e-02
2.800000000000000266e-01 8.905602777832702377e-02
2.899999999999999800e-01 8.609177957176665508e-02
2.999999999999999889e-01 7.863005207079196146e-02
3.099999999999999978e-01 6.650727704346362512e-02
3.200000000000000067e-01 4.979950352147831383e-02
3.300000000000000155e-01 2.908713230759842755e-02
3.400000000000000244e-01 4.694389882867862351e-03
3.500000000000000333e-01 -2.219794382963120871e-02
3.599999999999999867e-01 -5.082288521935145881e-02
3.699999999999999956e-01 -7.978927208999421483e-02
3.800000000000000044e-01 -1.076912358798661762e-01
3.900000000000000133e-01 -1.333150507804934659e-01
4.000000000000000222e-01 -1.549021701865997414e-01
4.100000000000000311e-01 -1.714016858023137413e-01
4.199999999999999845e-01 -1.813107058984769482e-01
4.299999999999999933e-01 -1.836309632107312462e-01
4.400000000000000022e-01 -1.777210484488005449e-01
4.500000000000000111e-01 -1.625988368463256173e-01
4.600000000000000200e-01 -1.388796654706426770e-01
4.700000000000000289e-01 -1.057063328724357071e-01
4.799999999999999822e-01 -6.498972980284409284e-02
4.899999999999999911e-01 -1.628691427461472982e-02
5.000000000000000000e-01 3.773156525205305367e-02
5.100000000000000089e-01 9.620622480850821168e-02
5.200000000000000178e-01 1.566565657676612933e-01
5.300000000000000266e-01 2.170801671178996251e-01
5.400000000000000355e-01 2.750653818423843822e-01
5.500000000000000444e-01 3.282926156655117667e-01
5.600000000000000533e-01 3.741897877536692896e-01
5.700000000000000622e-01 4.111084411555905316e-01
5.799999999999999600e-01 4.361123097346489286e-01
5.899999999999999689e-01 4.491224399032341941e-01
5.999999999999999778e-01 4.467860765297501091e-01
6.099999999999999867e-01 4.309054603826937280e-01
6.199999999999999956e-01 3.986579961963864216e-01
6.300000000000000044e-01 3.527922598581954006e-01
6.400000000000000133e-01 2.924191927314645501e-01
6.500000000000000222e-01 2.202508421374432257e-01
6.600000000000000311e-01 1.375280225159531411e-01
6.700000000000000400e-01 4.698760196756343599e-02
6.800000000000000488e-01 -4.865880468613387189e-02
6.900000000000000577e-01 -1.463713881501540193e-01
7.000000000000000666e-01 -2.430827996679257585e-01
7.099999999999999645e-01 -3.350643437391621071e-01
7.199999999999999734e-01 -4.202150992532104889e-01
7.299999999999999822e-01 -4.937800771912845277e-01
7.399999999999999911e-01 -5.553256939425388339e-01
7.500000000000000000e-01 -6.004943592536317043e-01
7.600000000000000089e-01 -6.295625540737997961e-01
7.700000000000000178e-01 -6.399395608652622691e-01
7.800000000000000266e-01 -6.321782416644685654e-01
7.900000000000000355e-01 -6.061289656674511139e-01
8.000000000000000444e-01 -5.624789195856080282e-01
8.100000000000000533e-01 -5.034947824726663246e-01
8.200000000000000622e-01 -4.301510791902650732e-01
8.300000000000000711e-01 -3.464154146740560658e-01
8.399999999999999689e-01 -2.539496180159134253e-01
8.499999999999999778e-01 -1.571462329033329886e-01
8.599999999999999867e-01 -5.893672527097687519e-02
8.699999999999999956e-01 3.712072358843002129e-02
8.800000000000000044e-01 1.273090057946522635e-01
8.900000000000000133e-01 2.089688177606263686e-01
9.000000000000000222e-01 2.789160429640801242e-01
9.100000000000000311e-01 3.349694010099216746e-01
9.200000000000000400e-01 3.756978710367540608e-01
9.300000000000000488e-01 3.991209426713317465e-01
9.400000000000000577e-01 4.062388008886516633e-01
9.500000000000000666e-01 3.952589167024419536e-01
9.599999999999999645e-01 3.695812052369454870e-01
9.699999999999999734e-01 3.278888672486519051e-01
9.799999999999999822e-01 2.748993232234160922e-01
9.899999999999999911e-01 2.113047601261575092e-01
1.000000000000000000e+00 1.412182291316602389e-01
1.010000000000000009e+00 6.713778927486380166e-02
1.020000000000000018e+00 -7.373580434281250956e-03
1.030000000000000027e+00 -7.925881412241755908e-02
1.040000000000000036e+00 -1.452179687358349791e-01
1.050000000000000044e+00 -2.029900108803279479e-01
1.060000000000000053e+00 -2.492660557502115182e-01
1.070000000000000062e+00 -2.836719597939982851e-01
1.080000000000000071e+00 -3.027939375542951228e-01
1.090000000000000080e+00 -3.084563531290248073e-01
1.100000000000000089e+00 -2.980202105984917083e-01
1.110000000000000098e+00 -2.744527817852501217e-01
1.120000000000000107e+00 -2.372016210808091385e-01
1.130000000000000115e+00 -1.892214159089664061e-01
1.140000000000000124e+00 -1.320410588994286594e-01
1.150000000000000133e+00 -6.856447557710049212e-02
1.159999999999999920e+00 -1.526872070087663402e-03
1.169999999999999929e+00 6.604017348805593657e-02
1.179999999999999938e+00 1.314144734502965539e-01
1.189999999999999947e+00 1.911832785136806656e-01
1.199999999999999956e+00 2.438737845460592912e-01
1.209999999999999964e+00 2.855282053032865974e-01
1.219999999999999973e+00 3.164188585327014636e-01
1.229999999999999982e+00 3.333948229714068789e-01
1.239999999999999991e+00 3.374629693754839233e-01
1.250000000000000000e+00 3.273230518920391408e-01
1.260000000000000009e+00 3.043114507007848024e-01
1.270000000000000018e+00 2.691969945978172629e-01
1.280000000000000027e+00 2.235498796575409175e-01
1.290000000000000036e+00 1.697612492986767530e-01
1.300000000000000044e+00 1.097712173003463770e-01
1.310000000000000053e+00 4.663753700139049857e-02
1.320000000000000062e+00 -1.705662884752046082e-02
1.330000000000000071e+00 -7.872199657541242845e-02
1.340000000000000080e+00 -1.350892889551160714e-01
1.350000000000000089e+00 -1.846435556958679614e-01
1.360000000000000098e+00 -2.243574740206070450e-01
1.370000000000000107e+00 -2.534358945999784507e-01
1.380000000000000115e+00 -2.701256518943696561e-01
1.390000000000000124e+00 -2.740444441605021653e-01
1.400000000000000133e+00 -2.652907161638277111e-01
1.409999999999999920e+00 -2.437746579297618565e-01
1.419999999999999929e+00 -2.114288316095812026e-01
1.429999999999999938e+00 -1.685602139178148107e-01
1.439999999999999947e+00 -1.183387266075301009e-01
1.449999999999999956e+00 -6.175353174376865817e-02
1.459999999999999964e+00 -2.161626724667178086e-03
1.469999999999999973e+00 5.831985123297346585e-02
1.479999999999999982e+00 1.170948124203579632e-01
1.489999999999999991e+00 1.715930797840566069e-01
1.500000000000000000e+00 2.197811973916110884e-01
1.510000000000000009e+00 2.596998127514367760e-01
1.520000000000000018e+00 2.896248662655737660e-01
1.530000000000000027e+00 3.090265690022015455e-01
1.540000000000000036e+00 3.163529790422252574e-01
1.550000000000000044e+00 3.128577227097171232e-01
1.560000000000000053e+00 2.972152714030546483e-01
1.570000000000000062e+00 2.721305406432392160e-01
1.580000000000000071e+00 2.371596899347510334e-01
1.590000000000000080e+00 1.953429610400713168e-01
1.600000000000000089e+00 1.476700318861092209e-01
1.610000000000000098e+00 9.675452528446940037e-02
1.620000000000000107e+00 4.450895138604997470e-02
1.630000000000000115e+00 -6.778154012642000070e-03
1.640000000000000124e+00 -5.520443184844656820e-02
1.650000000000000133e+00 -9.863622018732987051e-02
1.660000000000000142e+00 -1.360474281788145723e-01
1.669999999999999929e+00 -1.653415773668896749e-01
1.679999999999999938e+00 -1.869338783686984307e-01
1.689999999999999947e+00 -1.987927894058319489e-01
1.699999999999999956e+00 -2.026156202527524541e-01
1.709999999999999964e+00 -1.974588694222046692e-01
1.719999999999999973e+00 -1.852155642746924902e-01
1.729999999999999982e+00 -1.663526125001056344e-01
1.739999999999999991e+00 -1.427352191173667240e-01
1.750000000000000000e+00 -1.158286738548599815e-01
1.760000000000000009e+00 -8.749186174323420051e-02
1.770000000000000018e+00 -5.946136273834898289e-02
1.780000000000000027e+00 -3.369931246813284709e-02
1.790000000000000036e+00 -1.141569991566468954e-02
1.800000000000000044e+00 5.230236467198888170e-03
1.810000000000000053e+00 1.609136581398735999e-02
1.820000000000000062e+00 1.913862067052600480e-02
1.830000000000000071e+00 1.509724731436211387e-02
1.840000000000000080e+00 2.888777319578210608e-03
1.850000000000000089e+00 -1.648531578906616696e-02
1.860000000000000098e+00 -4.285520576537817095e-02
1.870000000000000107e+00 -7.507317979198199764e-02
1.880000000000000115e+00 -1.119471227775318267e-01
1.890000000000000124e+00 -1.521705337331971108e-01
1.900000000000000133e+00 -1.940831221678963048e-01
1.910000000000000142e+00 -2.361160070925087395e-01
1.919999999999999929e+00 -2.768542412291690180e-01
1.929999999999999938e+00 -3.143570322430139230e-01
1.939999999999999947e+00 -3.479520955054602460e-01
1.949999999999999956e+00 -3.758087812205757605e-01
1.959999999999999964e+00 -3.978081542839637108e-01
1.969999999999999973e+00 -4.128500714088690349e-01
1.979999999999999982e+00 -4.211266172701349508e-01
1.989999999999999991e+00 -4.225872992703095243e-01
2.000000000000000000e+00 -4.176191011869198610e-01
2.010000000000000231e+00 -4.071637397316827944e-01
2.020000000000000018e+00 -3.918009032611652898e-01
2.030000000000000249e+00 -3.730772013738024029e-01
2.040000000000000036e+00 -3.518431183025261810e-01
2.049999999999999822e+00 -3.296619422789573428e-01
2.060000000000000053e+00 -3.077326399501951193e-01
2.069999999999999840e+00 -2.871418990763963119e-01
2.080000000000000071e+00 -2.691116154749942369e-01
2.089999999999999858e+00 -2.542273170368753998e-01
2.100000000000000089e+00 -2.432255351484264305e-01
2.109999999999999876e+00 -2.362994853386648220e-01
2.120000000000000107e+00 -2.333848106779446430e-01
2.129999999999999893e+00 -2.343151996028920991e-01
2.140000000000000124e+00 -2.382436042740863347e-01
2.149999999999999911e+00 -2.445788850921239710e-01
2.160000000000000142e+00 -2.520412269166923402e-01
2.169999999999999929e+00 -2.594793964982701762e-01
2.180000000000000160e+00 -2.656843823725369980e-01
2.189999999999999947e+00 -2.690541311495361909e-01
2.200000000000000178e+00 -2.686899873032697617e-01
2.209999999999999964e+00 -2.630828368448664412e-01
2.220000000000000195e+00 -2.515624912127369384e-01
2.229999999999999982e+00 -2.333091463547863620e-01
2.240000000000000213e+00 -2.078257077819289367e-01
2.250000000000000000e+00 -1.753589495413042931e-01
2.260000000000000231e+00 -1.356286207740203253e-01
2.270000000000000018e+00 -8.997672511421112018e-02
2.280000000000000249e+00 -3.851635072500345092e-02
2.290000000000000036e+00 1.671174574354340747e-02
2.300000000000000266e+00 7.480264526357380261e-02
2.310000000000000053e+00 1.337033275595146398e-01
2.319999999999999840e+00 1.916766894102429897e-01
2.330000000000000071e+00 2.469332873135462458e-01
2.339999999999999858e+00 2.975179091555505972e-01
2.350000000000000089e+00 3.417475441120317314e-01
2.359999999999999876e+00 3.782472094445277211e-01
2.370000000000000107e+00 4.052925453879895334e-01
2.379999999999999893e+00 4.227424878308229661e-01
2.390000000000000124e+00 4.287881766067464517e-01
2.399999999999999911e+00 4.248484104888121116e-01
2.410000000000000142e+00 4.091559446377218134e-01
2.419999999999999929e+00 3.842972077305740752e-01
2.430000000000000160e+00 3.497012188153463264e-01
2.439999999999999947e+00 3.078754955463526843e-01
2.450000000000000178e+00 2.597147887402288524e-01
2.459999999999999964e+00 2.075021315021332025e-01
2.470000000000000195e+00 1.530504957305439118e-01
2.479999999999999982e+00 9.855467853195508388e-02
2.490000000000000213e+00 4.591767897867956444e-02
2.500000000000000000e+00 -2.559273694430895529e-03
2.510000000000000231e+00 -4.573311677086563248e-02
2.520000000000000018e+00 -8.105059539986707307e-02
2.530000000000000249e+00 -1.086578511492254373e-01
2.540000000000000036e+00 -1.261154384113977733e-01
2.550000000000000266e+00 -1.345405744426753092e-01
2.560000000000000053e+00 -1.326141377417105471e-01
2.569999999999999840e+00 -1.216438142868020295e-01
2.580000000000000071e+00 -1.017783157924900400e-01
2.589999999999999858e+00 -7.438795981362472665e-02
2.600000000000000089e+00 -4.083428898068801327e-02
2.609999999999999876e+00 -2.590567729229947477e-03
2.620000000000000107e+00 3.837853212522467777e-02
2.629999999999999893e+00 8.034679107803761877e-02
2.640000000000000124e+00 1.215404716206653912e-01
2.649999999999999911e+00 1.598149933061906725e-01
2.660000000000000142e+00 1.941829046375909973e-01
2.669999999999999929e+00 2.225142671701870190e-01
2.680000000000000160e+00 2.444809037629576687e-01
2.689999999999999947e+00 2.586707569828508024e-01
2.700000000000000178e+00 2.651216536031490989e-01
2.709999999999999964e+00 2.635724604802494597e-01
2.720000000000000195e+00 2.542828599640348797e-01
2.729999999999999982e+00 2.381714160312462247e-01
2.740000000000000213e+00 2.157178446335053790e-01
2.750000000000000000e+00 1.886692880334930877e-01
2.760000000000000231e+00 1.578415213682194673e-01
2.770000000000000018e+00 1.251797515013194917e-01
2.780000000000000249e+00 9.201854448598111025e-02
2.790000000000000036e+00 5.988689575920824043e-02
2.800000000000000266e+00 3.038108351833979093e-02
2.810000000000000053e+00 4.527648220889440855e-03
2.819999999999999840e+00 -1.641907328421160495e-02
2.830000000000000071e+00 -3.177154624085661710e-02
2.839999999999999858e+00 -4.111626786824853358e-02
2.850000000000000089e+00 -4.400636917994166231e-02
2.859999999999999876e+00 -4.105718244683746743e-02
2.870000000000000107e+00 -3.207618728035688260e-02
2.879999999999999893e+00 -1.854023897399299098e-02
2.890000000000000124e+00 -6.354224468152151056e-04
2.899999999999999911e+00 1.982167012433722411e-02
2.910000000000000142e+00 4.193628240603497481e-02
2.919999999999999929e+00 6.418316046958241761e-02
2.930000000000000160e+00 8.523629281729643015e-02
2.939999999999999947e+00 1.038584034025917119e-01
2.950000000000000178e+00 1.188857651030792578e-01
2.959999999999999964e+00 1.292709062274942922e-01
2.970000000000000195e+00 1.345358776031970460e-01
2.979999999999999982e+00 1.337693613150040817e-01
2.990000000000000213e+00 1.274623798020569632e-01
3.000000000000000000e+00 1.148863622254881756e-01
3.010000000000000231e+00 9.740082860633619832e-02
3.020000000000000018e+00 7.479567322308902644e-02
3.030000000000000249e+00 4.874375654548751546e-02
3.040000000000000036e+00 1.989456791505876676e-02
3.050000000000000266e+00 -1.022806799187583188e-02
3.060000000000000053e+00 -4.040020343277998804e-02
3.070000000000000284e+00 -6.920132114727350903e-02
3.080000000000000071e+00 -9.541083745449192854e-02
3.089999999999999858e+00 -1.176191994082752684e-01
3.100000000000000089e+00 -1.351804581258239379e-01
3.109999999999999876e+00 -1.466342334738086894e-01
3.120000000000000107e+00 -1.523109845133570339e-01
3.129999999999999893e+00 -1.507330415970603577e-01
3.140000000000000124e+00 -1.431319733401809069e-01
3.149999999999999911e+00 -1.287384076240822017e-01
3.160000000000000142e+00 -1.089484231300835576e-01
3.169999999999999929e+00 -8.401220556692440278e-02
3.180000000000000160e+00 -5.529663667403956345e-02
3.189999999999999947e+00 -2.383151220611301468e-02
3.200000000000000178e+00 9.015247547645113824e-03
3.209999999999999964e+00 4.193792780836529122e-02
3.220000000000000195e+00 7.347077141249405696e-02
3.229999999999999982e+00 1.026197464699807743e-01
3.240000000000000213e+00 1.277295949377831585e-01
3.250000000000000000e+00 1.485613429674267072e-01
3.260000000000000231e+00 1.634493403528797240e-01
3.270000000000000018e+00 1.728405202624401504e-01
3.280000000000000249e+00 1.757140401844055899e-01
3.290000000000000036e+00 1.727309159090243962e-01
3.300000000000000266e+00 1.638156001154642549e-01
3.310000000000000053e+00 1.497328910789497980e-01
3.320000000000000284e+00 1.312572797247969769e-01
3.330000000000000071e+00 1.092562093443393417e-01
3.339999999999999858e+00 8.499301743795840969e-02
3.350000000000000089e+00 5.951516629575347161e-02
3.359999999999999876e+00 3.405656109666702763e-02
3.370000000000000107e+00 9.940602975093137950e-03
3.379999999999999893e+00 -1.206194623305854863e-02
3.390000000000000124e+00 -3.058914790634420164e-02
3.399999999999999911e+00 -4.533607438104681614e-02
3.410000000000000142e+00 -5.536819491515320574e-02
3.419999999999999929e+00 -6.066663419498884158e-02
3.430000000000000160e+00 -6.103691131129480862e-02
3.439999999999999947e+00 -5.665431720873195798e-02
3.450000000000000178e+00 -4.810021977116370889e-02
3.459999999999999964e+00 -3.574267681555163417e-02
3.470000000000000195e+00 -2.070593052172940707e-02
3.479999999999999982e+00 -3.625183393081868842e-03
3.490000000000000213e+00 1.426048562922794909e-02
3.500000000000000000e+00 3.195211633391602246e-02
3.510000000000000231e+00 4.849795976190161145e-02
3.520000000000000018e+00 6.275728189430897219e-02
3.530000000000000249e+00 7.411028242134162780e-02
3.540000000000000036e+00 8.170785281074234574e-02
3.550000000000000266e+00 8.516487409505120454e-02
3.560000000000000053e+00 8.426538281126610963e-02
3.570000000000000284e+00 7.881098359165243650e-02
3.580000000000000071e+00 6.932839320640728220e-02
3.589999999999999858e+00 5.583992075577928760e-02
3.600000000000000089e+00 3.945974702552747237e-02
3.609999999999999876e+00 2.054341045489557413e-02
3.620000000000000107e+00 4.000300698799918791e-04
3.629999999999999893e+00 -2.009742386613289425e-02
3.640000000000000124e+00 -3.985427965294993657e-02
3.649999999999999911e+00 -5.773505914217324370e-02
3.660000000000000142e+00 -7.283942875112288384e-02
3.669999999999999929e+00 -8.423884132977202399e-02
3.680000000000000160e+00 -9.114484365544474331e-02
3.689999999999999947e+00 -9.324020790125311930e-02
3.700000000000000178e+00 -8.980787041069629439e-02
3.709999999999999964e+00 -8.135082790933562125e-02
3.720000000000000195e+00 -6.726677233122148325e-02
3.729999999999999982e+00 -4.878061080652405096e-02
3.740000000000000213e+00 -2.568226252737376702e-02
3.750000000000000000e+00 5.555882155819625266e-04
3.760000000000000231e+00 2.942904702824559321e-02
3.770000000000000018e+00 5.963483908410738277e-02
3.780000000000000249e+00 9.017782351298951615e-02
3.790000000000000036e+00 1.198760583316866024e-01
3.800000000000000266e+00 1.477166391424191982e-01
3.810000000000000053e+00 1.725538188061636891e-01
3.820000000000000284e+00 1.938223972927429761e-01
3.830000000000000071e+00 2.103522862817486239e-01
3.839999999999999858e+00 2.223538837021838688e-01
3.850000000000000089e+00 2.286480639269015958e-01
3.859999999999999876e+00 2.301736413972204354e-01
