# [DEFAULT]
# # input and output specifications
# dataformat = QA
# outputtype = gr
# 
# # PDF calculation setup
# mode = xray
# wavelength = 
# composition = Cl4.0Cr1.0Na1.0
# bgscale = 1.0
# rpoly = 0.9
# qmaxinst = 28
# qmin = 0.0
# qmax = 22
# rmin = 0.0
# rmax = 30.0
# rstep = 0.01
# 
# # End of config --------------------------------------------------------------
# 
# #### start data
# #S 1
# #L r(Å)  G(Å$^$)
# 
0.000000000000000000e+00 0.000000000000000000e+00
1.000000000000000021e-02 -2.679336151812958949e-03
2.000000000000000042e-02 -5.490948581139608493e-03
2.999999999999999889e-02 -8.583541203217144588e-03
4.000000000000000083e-02 -1.200857549624887929e-02
5.000000000000000278e-02 -1.582851371040028265e-02
5.999999999999999778e-02 -1.999190719676266492e-02
7.000000000000000666e-02 -2.441031916175135166e-02
8.000000000000000167e-02 -2.890749491292860310e-02
8.999999999999999667e-02 -3.326582051327044848e-02
1.000000000000000056e-01 -3.715802539415199307e-02
1.100000000000000006e-01 -4.035073901722951301e-02
1.199999999999999956e-01 -4.234547207625359577e-02
1.300000000000000044e-01 -4.303542298236569252e-02
1.400000000000000133e-01 -4.184967063226967265e-02
1.499999999999999944e-01 -3.883482274875322410e-02
1.600000000000000033e-01 -3.359741695765518926e-02
1.700000000000000122e-01 -2.627797472681519045e-02
1.799999999999999933e-01 -1.683672055945818063e-02
1.900000000000000022e-01 -5.530512933382875779e-03
2.000000000000000111e-01 7.289213420032327612e-03
2.099999999999999922e-01 2.118911277208808050e-02
2.200000000000000011e-01 3.554658723527210490e-02
2.300000000000000100e-01 4.965911520446519845e-02
2.399999999999999911e-01 6.290148424787853076e-02
2.500000000000000000e-01 7.420621402366853192e-02
2.600000000000000089e-01 8.319001957005663084e-02
2.700000000000000178e-01 8.870576299957308453e-02
2.800000000000000266e-01 9.053953943072515220e-02
2.899999999999999800e-01 8.786751366288322873e-02
2.999999999999999889e-01 8.060297666851500009e-02
3.099999999999999978e-01 6.856128436697218886e-02
3.200000000000000067e-01 5.180030346662115731e-02
3.300000000000000155e-01 3.089887272748657876e-02
3.400000000000000244e-01 6.166855940522198050e-03
3.500000000000000333e-01 -2.119273308314218590e-02
3.599999999999999867e-01 -5.041934634660147352e-02
3.699999999999999956e-01 -8.008120780393840343e-02
3.800000000000000044e-01 -1.087599263500064611e-01
3.900000000000000133e-01 -1.351970203470515552e-01
4.000000000000000222e-01 -1.575991347958664579e-01
4.100000000000000311e-01 -1.748724663193529094e-01
4.199999999999999845e-01 -1.854692605100452252e-01
4.299999999999999933e-01 -1.883472609442799206e-01
4.400000000000000022e-01 -1.828289268637087461e-01
4.500000000000000111e-01 -1.678840211426056994e-01
4.600000000000000200e-01 -1.441185190103261293e-01
4.700000000000000289e-01 -1.106224073314762690e-01
4.799999999999999822e-01 -6.933593978626356735e-02
4.899999999999999911e-01 -1.976271060385183242e-02
5.000000000000000000e-01 3.536544986779822236e-02
5.100000000000000089e-01 9.520841625294904076e-02
5.200000000000000178e-01 1.572238375357511153e-01
5.300000000000000266e-01 2.193855673003349549e-01
5.400000000000000355e-01 2.792196787588384632e-01
5.500000000000000444e-01 3.343526744734043876e-01
5.600000000000000533e-01 3.821447762963569028e-01
5.700000000000000622e-01 4.208864657958801825e-01
5.799999999999999600e-01 4.475610855880414740e-01
5.899999999999999689e-01 4.620491313875191852e-01
5.999999999999999778e-01 4.608984633616396431e-01
6.099999999999999867e-01 4.459108487003468624e-01
6.199999999999999956e-01 4.141614952722807441e-01
6.300000000000000044e-01 3.684280189314322329e-01
6.400000000000000133e-01 3.077555112221450062e-01
6.500000000000000222e-01 2.348906078129391617e-01
6.600000000000000311e-01 1.510639769537450161e-01
6.700000000000000400e-01 5.904929488621186995e-02
6.800000000000000488e-01 -3.839736283118103805e-02
6.900000000000000577e-01 -1.381939220198748208e-01
7.000000000000000666e-01 -2.371906974755238207e-01
7.099999999999999645e-01 -3.316025196076892168e-01
7.199999999999999734e-01 -4.192372283061712723e-01
7.299999999999999822e-01 -4.952578368033568323e-01
7.399999999999999911e-01 -5.591592445979639558e-01
7.500000000000000000e-01 -6.064852103210441880e-01
7.600000000000000089e-01 -6.374650081295258897e-01
7.700000000000000178e-01 -6.494232532494110810e-01
7.800000000000000266e-01 -6.428791534645470485e-01
7.900000000000000355e-01 -6.176417434256749051e-01
8.000000000000000444e-01 -5.743709993424875870e-01
8.100000000000000533e-01 -5.153517378666122584e-01
8.200000000000000622e-01 -4.415371242222036474e-01
8.300000000000000711e-01 -3.569711550949564716e-01
8.399999999999999689e-01 -2.633070088199000458e-01
8.499999999999999778e-01 -1.650495823930366313e-01
8.599999999999999867e-01 -6.515749678187605920e-02
8.699999999999999956e-01 3.270166030560849035e-02
8.800000000000000044e-01 1.247414348284457963e-01
8.900000000000000133e-01 2.082113907402191044e-01
9.000000000000000222e-01 2.798428731998534036e-01
9.100000000000000311e-01 3.373735265267024941e-01
9.200000000000000400e-01 3.793085108991802734e-01
9.300000000000000488e-01 4.035884014568956735e-01
9.400000000000000577e-01 4.111996483246015410e-01
9.500000000000000666e-01 4.002697144036395094e-01
9.599999999999999645e-01 3.742500801280894684e-01
9.699999999999999734e-01 3.317471520952992026e-01
9.799999999999999822e-01 2.775794771912489245e-01
9.899999999999999911e-01 2.124151223222616736e-01
1.000000000000000000e+00 1.404657769397806844e-01
1.010000000000000009e+00 6.426736179788775094e-02
1.020000000000000018e+00 -1.252420612177705325e-02
1.030000000000000027e+00 -8.677519387301313447e-02
1.040000000000000036e+00 -1.550928916743612718e-01
1.050000000000000044e+00 -2.151354428823111786e-01
1.060000000000000053e+00 -2.634930819645966982e-01
1.070000000000000062e+00 -2.997432545987857022e-01
1.080000000000000071e+00 -3.203568704532926414e-01
1.090000000000000080e+00 -3.271648332849069196e-01
1.100000000000000089e+00 -3.174181194331990863e-01
1.110000000000000098e+00 -2.941299655301725102e-01
1.120000000000000107e+00 -2.566875576934435910e-01
1.130000000000000115e+00 -2.080998709291635440e-01
1.140000000000000124e+00 -1.499015017255429794e-01
1.150000000000000133e+00 -8.505447420189347907e-02
1.159999999999999920e+00 -1.635623046746170761e-02
1.169999999999999929e+00 5.309660481607127169e-02
1.179999999999999938e+00 1.204894366934487759e-01
1.189999999999999947e+00 1.823291308086317786e-01
1.199999999999999956e+00 2.370567833530113355e-01
1.209999999999999964e+00 2.806094860406982971e-01
1.219999999999999973e+00 3.132080559077693449e-01
1.229999999999999982e+00 3.315936450378557665e-01
1.239999999999999991e+00 3.367498235618959224e-01
1.250000000000000000e+00 3.273007414794826264e-01
1.260000000000000009e+00 3.045754832676749180e-01
1.270000000000000018e+00 2.693239350815540001e-01
1.280000000000000027e+00 2.231190944771491991e-01
1.290000000000000036e+00 1.683957014575410416e-01
1.300000000000000044e+00 1.071084098456397543e-01
1.310000000000000053e+00 4.240735183046892565e-02
1.320000000000000062e+00 -2.308940111334071080e-02
1.330000000000000071e+00 -8.668240501806681597e-02
1.340000000000000080e+00 -1.450321597149743513e-01
1.350000000000000089e+00 -1.965299279057241277e-01
1.360000000000000098e+00 -2.380535363912311686e-01
1.370000000000000107e+00 -2.687356578845449540e-01
1.380000000000000115e+00 -2.867381512310972491e-01
1.390000000000000124e+00 -2.916187363821580725e-01
1.400000000000000133e+00 -2.834345611029697731e-01
1.409999999999999920e+00 -2.620417251190720886e-01
1.419999999999999929e+00 -2.293953239649419162e-01
1.429999999999999938e+00 -1.857545744804181276e-01
1.439999999999999947e+00 -1.343767787524309254e-01
1.449999999999999956e+00 -7.621825757833956827e-02
1.459999999999999964e+00 -1.476074960519815731e-02
1.469999999999999973e+00 4.785618020344077628e-02
1.479999999999999982e+00 1.089243931451262387e-01
1.489999999999999991e+00 1.658010140980318015e-01
1.500000000000000000e+00 2.163527049855523132e-01
1.510000000000000009e+00 2.585316912190523952e-01
1.520000000000000018e+00 2.905183027930677842e-01
1.530000000000000027e+00 3.117176892446269498e-01
1.540000000000000036e+00 3.204791284516095295e-01
1.550000000000000044e+00 3.180470736606373361e-01
1.560000000000000053e+00 3.029918637430121797e-01
1.570000000000000062e+00 2.780755245297302780e-01
1.580000000000000071e+00 2.427716334648947760e-01
1.590000000000000080e+00 2.002131568850032406e-01
1.600000000000000089e+00 1.513714679675540187e-01
1.610000000000000098e+00 9.895285204355216968e-02
1.620000000000000107e+00 4.491757059297965538e-02
1.630000000000000115e+00 -8.353238856378522592e-03
1.640000000000000124e+00 -5.886960346541118827e-02
1.650000000000000133e+00 -1.043985142794996296e-01
1.660000000000000142e+00 -1.438247689023021136e-01
1.669999999999999929e+00 -1.749364704824884209e-01
1.679999999999999938e+00 -1.980989872139029551e-01
1.689999999999999947e+00 -2.111427599445047099e-01
1.699999999999999956e+00 -2.157723577328083953e-01
1.709999999999999964e+00 -2.109291841897947828e-01
1.719999999999999973e+00 -1.985377644249744500e-01
1.729999999999999982e+00 -1.790114730320529757e-01
1.739999999999999991e+00 -1.542573184899454497e-01
1.750000000000000000e+00 -1.257602556752239198e-01
1.760000000000000009e+00 -9.542882977896692542e-02
1.770000000000000018e+00 -6.508100619183143642e-02
1.780000000000000027e+00 -3.674244717901387070e-02
1.790000000000000036e+00 -1.173548700232081646e-02
1.800000000000000044e+00 7.691587616452288251e-03
1.810000000000000053e+00 2.128886290322363345e-02
1.820000000000000062e+00 2.690688525490029029e-02
1.830000000000000071e+00 2.520336277168653411e-02
1.840000000000000080e+00 1.497933970073343779e-02
1.850000000000000089e+00 -2.806132228040697681e-03
1.860000000000000098e+00 -2.806274092742867474e-02
1.870000000000000107e+00 -5.967127864982978147e-02
1.880000000000000115e+00 -9.645001977082545697e-02
1.890000000000000124e+00 -1.371113596552463454e-01
1.900000000000000133e+00 -1.799292260506322738e-01
1.910000000000000142e+00 -2.233390009572896184e-01
1.919999999999999929e+00 -2.658002008505839786e-01
1.929999999999999938e+00 -3.053479240200999700e-01
1.939999999999999947e+00 -3.411644555806289114e-01
1.949999999999999956e+00 -3.713388977243641809e-01
1.959999999999999964e+00 -3.956310482586177235e-01
1.969999999999999973e+00 -4.128265543725144204e-01
1.979999999999999982e+00 -4.230139655526682363e-01
1.989999999999999991e+00 -4.260412718859244441e-01
2.000000000000000000e+00 -4.221985946165386916e-01
2.010000000000000231e+00 -4.123820497612755709e-01
2.020000000000000018e+00 -3.970745498810424601e-01
2.030000000000000249e+00 -3.778607168103628733e-01
2.040000000000000036e+00 -3.554971566698831298e-01
2.049999999999999822e+00 -3.316656022041901131e-01
2.060000000000000053e+00 -3.075108163301935593e-01
2.069999999999999840e+00 -2.842700245457763786e-01
2.080000000000000071e+00 -2.631948676883443250e-01
2.089999999999999858e+00 -2.450121259648317951e-01
2.100000000000000089e+00 -2.305588145387189591e-01
2.109999999999999876e+00 -2.201671356123906798e-01
2.120000000000000107e+00 -2.138985531355210579e-01
2.129999999999999893e+00 -2.117370627043904108e-01
2.140000000000000124e+00 -2.129322854631259532e-01
2.149999999999999911e+00 -2.170683608934344255e-01
2.160000000000000142e+00 -2.228823094163094876e-01
2.169999999999999929e+00 -2.294298420678799744e-01
2.180000000000000160e+00 -2.354293100079720980e-01
2.189999999999999947e+00 -2.394372472767274385e-01
2.200000000000000178e+00 -2.404612176570616877e-01
2.209999999999999964e+00 -2.370480355930824623e-01
2.220000000000000195e+00 -2.284318361251448382e-01
2.229999999999999982e+00 -2.137398276032866640e-01
2.240000000000000213e+00 -1.923753471364771095e-01
2.250000000000000000e+00 -1.644489241653247502e-01
2.260000000000000231e+00 -1.295623771597546880e-01
2.270000000000000018e+00 -8.888812632843375028e-02
2.280000000000000249e+00 -4.238053533594411670e-02
2.290000000000000036e+00 8.063227868576005458e-03
2.300000000000000266e+00 6.174708468394640715e-02
2.310000000000000053e+00 1.167062349490305406e-01
2.319999999999999840e+00 1.714100433708579674e-01
2.330000000000000071e+00 2.241289961507045014e-01
2.339999999999999858e+00 2.730489762693393274e-01
2.350000000000000089e+00 3.165400550862382811e-01
2.359999999999999876e+00 3.532588836957928913e-01
2.370000000000000107e+00 3.815380658120097190e-01
2.379999999999999893e+00 4.011422541487226212e-01
2.390000000000000124e+00 4.103194505346530185e-01
2.399999999999999911e+00 4.102833443432944982e-01
2.410000000000000142e+00 3.993044179747927691e-01
2.419999999999999929e+00 3.797121498258617112e-01
2.430000000000000160e+00 3.508799470311039781e-01
2.439999999999999947e+00 3.150967484062239810e-01
2.450000000000000178e+00 2.731160919333485704e-01
2.459999999999999964e+00 2.270337937961423580e-01
2.470000000000000195e+00 1.784961566955207968e-01
2.479999999999999982e+00 1.295185841371402080e-01
2.490000000000000213e+00 8.187840156674590364e-02
2.500000000000000000e+00 3.768225993631455634e-02
2.510000000000000231e+00 -1.955140086402868543e-03
2.520000000000000018e+00 -3.470545746580551427e-02
2.530000000000000249e+00 -6.062403633972864025e-02
2.540000000000000036e+00 -7.748898722895447566e-02
2.550000000000000266e+00 -8.626235304907535484e-02
2.560000000000000053e+00 -8.574249200945721627e-02
2.569999999999999840e+00 -7.709795470214786395e-02
2.580000000000000071e+00 -6.047071921143799128e-02
2.589999999999999858e+00 -3.711404981694151756e-02
2.600000000000000089e+00 -8.281373171874360090e-03
2.609999999999999876e+00 2.465673441229459043e-02
2.620000000000000107e+00 5.990156305104063494e-02
2.629999999999999893e+00 9.583238486156084313e-02
2.640000000000000124e+00 1.308448913024356508e-01
2.649999999999999911e+00 1.629234466953772831e-01
2.660000000000000142e+00 1.912067267759377798e-01
2.669999999999999929e+00 2.137132533712273463e-01
2.680000000000000160e+00 2.301904762581397645e-01
2.689999999999999947e+00 2.393540522251937641e-01
2.700000000000000178e+00 2.412925110741198642e-01
2.709999999999999964e+00 2.358137000574604125e-01
2.720000000000000195e+00 2.232227859974255102e-01
2.729999999999999982e+00 2.044293808286958281e-01
2.740000000000000213e+00 1.799643537038633223e-01
2.750000000000000000e+00 1.514886070570505283e-01
2.760000000000000231e+00 1.198765855362619731e-01
2.770000000000000018e+00 8.693385966357686234e-02
2.780000000000000249e+00 5.403689882646200288e-02
2.790000000000000036e+00 2.257464534153035690e-02
2.800000000000000266e+00 -5.862917479321540400e-03
2.810000000000000053e+00 -3.035042290966643089e-02
2.819999999999999840e+00 -4.967525234086701130e-02
2.830000000000000071e+00 -6.321822655644651623e-02
2.839999999999999858e+00 -7.061695247660289276e-02
2.850000000000000089e+00 -7.146782612935147216e-02
2.859999999999999876e+00 -6.642684493094323794e-02
2.870000000000000107e+00 -5.532598646767707823e-02
2.879999999999999893e+00 -3.966248776050493308e-02
2.890000000000000124e+00 -1.963149612106455250e-02
2.899999999999999911e+00 2.949383197818567382e-03
2.910000000000000142e+00 2.719111198789461031e-02
2.919999999999999929e+00 5.157892515803951666e-02
2.930000000000000160e+00 7.480313070675721765e-02
2.939999999999999947e+00 9.564179732420753643e-02
2.950000000000000178e+00 1.129484673250316096e-01
2.959999999999999964e+00 1.256918712683656458e-01
2.970000000000000195e+00 1.334010996774923075e-01
2.979999999999999982e+00 1.351782763332430026e-01
2.990000000000000213e+00 1.315035462286803791e-01
3.000000000000000000e+00 1.216537182935517603e-01
3.010000000000000231e+00 1.069598067025184090e-01
3.020000000000000018e+00 8.719901972823876357e-02
3.030000000000000249e+00 6.400676451931963662e-02
3.040000000000000036e+00 3.799627017782945815e-02
3.050000000000000266e+00 1.064984895410330326e-02
3.060000000000000053e+00 -1.685920614176741883e-02
3.070000000000000284e+00 -4.315995410461372084e-02
3.080000000000000071e+00 -6.707879421597767733e-02
3.089999999999999858e+00 -8.726933562156291568e-02
3.100000000000000089e+00 -1.031081049104472791e-01
3.109999999999999876e+00 -1.132161970253102307e-01
3.120000000000000107e+00 -1.179035132839409139e-01
3.129999999999999893e+00 -1.157935596539814149e-01
3.140000000000000124e+00 -1.080560651772946301e-01
3.149999999999999911e+00 -9.399931521308424465e-02
3.160000000000000142e+00 -7.495622082772405992e-02
3.169999999999999929e+00 -5.120397617214763469e-02
3.180000000000000160e+00 -2.405508290534437432e-02
3.189999999999999947e+00 5.485391625371061411e-03
3.200000000000000178e+00 3.609732400530590857e-02
3.209999999999999964e+00 6.653871595526995864e-02
3.220000000000000195e+00 9.539221218933402469e-02
3.229999999999999982e+00 1.217445658059310154e-01
3.240000000000000213e+00 1.439998276918494913e-01
3.250000000000000000e+00 1.619910580733671945e-01
3.260000000000000231e+00 1.741304988280011345e-01
3.270000000000000018e+00 1.809125941246519376e-01
3.280000000000000249e+00 1.813970053645511116e-01
3.290000000000000036e+00 1.762763429253092484e-01
3.300000000000000266e+00 1.655341318712891530e-01
3.310000000000000053e+00 1.499616025021862364e-01
3.320000000000000284e+00 1.303529777697508552e-01
3.330000000000000071e+00 1.076038099205456344e-01
3.339999999999999858e+00 8.295026059282140096e-02
3.350000000000000089e+00 5.747113579778782150e-02
3.359999999999999876e+00 3.232993184491746164e-02
3.370000000000000107e+00 8.880856143032890559e-03
3.379999999999999893e+00 -1.219826573143259138e-02
3.390000000000000124e+00 -2.954430065952631107e-02
3.399999999999999911e+00 -4.293078325465723988e-02
3.410000000000000142e+00 -5.145446441399927073e-02
3.419999999999999929e+00 -5.515864332328012515e-02
3.430000000000000160e+00 -5.389550560104002658e-02
3.439999999999999947e+00 -4.789299017248729862e-02
3.450000000000000178e+00 -3.777487631021846093e-02
3.459999999999999964e+00 -2.395970765655889428e-02
3.470000000000000195e+00 -7.593476615820691361e-03
3.479999999999999982e+00 1.063439099171181387e-02
3.490000000000000213e+00 2.949165914978408090e-02
3.500000000000000000e+00 4.792554704700469070e-02
3.510000000000000231e+00 6.500984610406598807e-02
3.520000000000000018e+00 7.956988094128510103e-02
3.530000000000000249e+00 9.100987974699860372e-02
3.540000000000000036e+00 9.847288579751800608e-02
3.550000000000000266e+00 1.015917267170040744e-01
3.560000000000000053e+00 1.001650100530061954e-01
3.570000000000000284e+00 9.400476101187281441e-02
3.580000000000000071e+00 8.366733751248384143e-02
3.589999999999999858e+00 6.917859946575001528e-02
3.600000000000000089e+00 5.168898631346035416e-02
3.609999999999999876e+00 3.155229907694512281e-02
3.620000000000000107e+00 1.011122986994598960e-02
3.629999999999999893e+00 -1.176056302867629737e-02
3.640000000000000124e+00 -3.294729206691762724e-02
3.649999999999999911e+00 -5.230999665615808369e-02
3.660000000000000142e+00 -6.893758023749377295e-02
3.669999999999999929e+00 -8.189761483076300752e-02
3.680000000000000160e+00 -9.039771646891019141e-02
3.689999999999999947e+00 -9.411678492491989956e-02
3.700000000000000178e+00 -9.233764207204800400e-02
3.709999999999999964e+00 -8.555827247362229881e-02
3.720000000000000195e+00 -7.317720493324511577e-02
3.729999999999999982e+00 -5.641216828354342350e-02
3.740000000000000213e+00 -3.505116243158178102e-02
3.750000000000000000e+00 -1.055794639349400335e-02
3.760000000000000231e+00 1.657138137476806689e-02
3.770000000000000018e+00 4.504415310138099732e-02
3.780000000000000249e+00 7.387829371496291986e-02
3.790000000000000036e+00 1.019061037524963270e-01
3.800000000000000266e+00 1.281293230996150001e-01
3.810000000000000053e+00 1.514224471583755227e-01
3.820000000000000284e+00 1.712306864122523642e-01
3.830000000000000071e+00 1.864126460178494316e-01
3.839999999999999858e+00 1.971781163995714181e-01
3.850000000000000089e+00 2.023870348371062944e-01
3.859999999999999876e+00 2.029650148416617950e-01
