# [DEFAULT]
# # input and output specifications
# dataformat = QA
# outputtype = gr
# 
# # PDF calculation setup
# mode = xray
# wavelength = 
# composition = Cl4.0Cr1.0Na1.0
# bgscale = 1.0
# rpoly = 0.9
# qmaxinst = 28
# qmin = 0.0
# qmax = 22
# rmin = 0.0
# rmax = 30.0
# rstep = 0.01
# 
# # End of config --------------------------------------------------------------
# 
# #### start data
# #S 1
# #L r(Å)  G(Å$^$)
# 
0.000000000000000000e+00 0.000000000000000000e+00
1.000000000000000021e-02 -2.255609514896012111e-03
2.000000000000000042e-02 -4.665429764159866911e-03
2.999999999999999889e-02 -7.404913987219739931e-03
4.000000000000000083e-02 -1.053941608275000413e-02
5.000000000000000278e-02 -1.415322537664948435e-02
5.999999999999999778e-02 -1.820283443973261250e-02
7.000000000000000666e-02 -2.260796574629899552e-02
8.000000000000000167e-02 -2.719562432285106343e-02
8.999999999999999667e-02 -3.173912114295499021e-02
1.000000000000000056e-01 -3.590933268317173660e-02
1.100000000000000006e-01 -3.944933080643657497e-02
1.199999999999999956e-01 -4.185149413943127505e-02
1.300000000000000044e-01 -4.297958379147468616e-02
1.400000000000000133e-01 -4.224267631023841812e-02
1.499999999999999944e-01 -3.966206184200030127e-02
1.600000000000000033e-01 -3.481779940354945424e-02
1.700000000000000122e-01 -2.783114160948207960e-02
1.799999999999999933e-01 -1.864008857172111400e-02
1.900000000000000022e-01 -7.486736934894338072e-03
2.000000000000000111e-01 5.285635577622074636e-03
2.099999999999999922e-01 1.925452456702020018e-02
2.200000000000000011e-01 3.378659011653796507e-02
2.300000000000000100e-01 4.818484716048374028e-02
2.399999999999999911e-01 6.179635222597416877e-02
2.500000000000000000e-01 7.355034519539849214e-02
2.600000000000000089e-01 8.302826745992855639e-02
2.700000000000000178e-01 8.906348926244586628e-02
2.800000000000000266e-01 9.141126445120244248e-02
2.899999999999999800e-01 8.921850597053296306e-02
2.999999999999999889e-01 8.237119296841130534e-02
3.099999999999999978e-01 7.065880242718226845e-02
3.200000000000000067e-01 5.411389804236637485e-02
3.300000000000000155e-01 3.330503741183209881e-02
3.400000000000000244e-01 8.518497225767869552e-03
3.500000000000000333e-01 -1.902993207859158056e-02
3.599999999999999867e-01 -4.859924703487229769e-02
3.699999999999999956e-01 -7.872383067599413031e-02
3.800000000000000044e-01 -1.079894884804730171e-01
3.900000000000000133e-01 -1.350965134136851153e-01
4.000000000000000222e-01 -1.582323431659292401e-01
4.100000000000000311e-01 -1.762631077166521565e-01
4.199999999999999845e-01 -1.876059789571370984e-01
4.299999999999999933e-01 -1.911779228425767863e-01
4.400000000000000022e-01 -1.862660065413600519e-01
4.500000000000000111e-01 -1.717955742815303055e-01
4.600000000000000200e-01 -1.483536997400167201e-01
4.700000000000000289e-01 -1.149804961854415664e-01
4.799999999999999822e-01 -7.362714783731098833e-02
4.899999999999999911e-01 -2.374332338667595882e-02
5.000000000000000000e-01 3.190021172174530018e-02
5.100000000000000089e-01 9.249273819940842523e-02
5.200000000000000178e-01 1.554496817757707317e-01
5.300000000000000266e-01 2.187387441357739881e-01
5.400000000000000355e-01 2.798423799121731448e-01
5.500000000000000444e-01 3.363516090163985450e-01
5.600000000000000533e-01 3.855789621297909808e-01
5.700000000000000622e-01 4.257656342560774410e-01
5.799999999999999600e-01 4.538377639123873375e-01
5.899999999999999689e-01 4.696338242683328335e-01
5.999999999999999778e-01 4.696290534357481228e-01
6.099999999999999867e-01 4.556081046237857035e-01
6.199999999999999956e-01 4.245663014599434515e-01
6.300000000000000044e-01 3.792864573975404108e-01
6.400000000000000133e-01 3.187540368306891470e-01
6.500000000000000222e-01 2.457269553678796403e-01
6.600000000000000311e-01 1.614142473928760479e-01
6.700000000000000400e-01 6.860251011175605429e-02
6.800000000000000488e-01 -2.993146082449104836e-02
6.900000000000000577e-01 -1.310907194634372552e-01
7.000000000000000666e-01 -2.316697520679224798e-01
7.099999999999999645e-01 -3.278615946372446244e-01
7.199999999999999734e-01 -4.174004446466416662e-01
7.299999999999999822e-01 -4.954124678036094243e-01
7.399999999999999911e-01 -5.613234916978572242e-01
7.500000000000000000e-01 -6.106200988339144375e-01
7.600000000000000089e-01 -6.434807289701300892e-01
7.700000000000000178e-01 -6.571695022935811759e-01
7.800000000000000266e-01 -6.521654026277006189e-01
7.900000000000000355e-01 -6.282358251186228593e-01
8.000000000000000444e-01 -5.860039953779312416e-01
8.100000000000000533e-01 -5.277478139102658172e-01
8.200000000000000622e-01 -4.543831760876126946e-01
8.300000000000000711e-01 -3.699880479812518441e-01
8.399999999999999689e-01 -2.761782467489063420e-01
8.499999999999999778e-01 -1.775249088806319098e-01
8.599999999999999867e-01 -7.696602768426957786e-02
8.699999999999999956e-01 2.175961758503614299e-02
8.800000000000000044e-01 1.148539533800028850e-01
8.900000000000000133e-01 1.995081162504058481e-01
9.000000000000000222e-01 2.724181677972069560e-01
9.100000000000000311e-01 3.312731783604954683e-01
9.200000000000000400e-01 3.745372880042473485e-01
9.300000000000000488e-01 4.001075948116019632e-01
9.400000000000000577e-01 4.089409692994102064e-01
9.500000000000000666e-01 3.991221540650380928e-01
9.599999999999999645e-01 3.740969427947496984e-01
9.699999999999999734e-01 3.324276428770386871e-01
9.799999999999999822e-01 2.789508014386182233e-01
9.899999999999999911e-01 2.143060360133701991e-01
1.000000000000000000e+00 1.427282876149661150e-01
1.010000000000000009e+00 6.674843959926596293e-02
1.020000000000000018e+00 -9.954439238065286924e-03
1.030000000000000027e+00 -8.423159237801421118e-02
1.040000000000000036e+00 -1.526686202476267851e-01
1.050000000000000044e+00 -2.128973144156375563e-01
1.060000000000000053e+00 -2.614867550863439472e-01
1.070000000000000062e+00 -2.979875769363632410e-01
1.080000000000000071e+00 -3.188482426451068608e-01
1.090000000000000080e+00 -3.258816310910360170e-01
1.100000000000000089e+00 -3.163155302322717688e-01
1.110000000000000098e+00 -2.931564159364775102e-01
1.120000000000000107e+00 -2.557742211364770757e-01
1.130000000000000115e+00 -2.071775958702710696e-01
1.140000000000000124e+00 -1.488947342661330053e-01
1.150000000000000133e+00 -8.389036557731296972e-02
1.159999999999999920e+00 -1.496680048859640177e-02
1.169999999999999929e+00 5.477544719826837188e-02
1.179999999999999938e+00 1.225088125225447661e-01
1.189999999999999947e+00 1.847355910308223215e-01
1.199999999999999956e+00 2.398809281581978370e-01
1.209999999999999964e+00 2.838763894689217415e-01
1.219999999999999973e+00 3.169291817009843304e-01
1.229999999999999982e+00 3.357731280961821496e-01
1.239999999999999991e+00 3.413836829549435903e-01
1.250000000000000000e+00 3.323783357969208319e-01
1.260000000000000009e+00 3.100816900921575803e-01
1.270000000000000018e+00 2.752398777014882780e-01
1.280000000000000027e+00 2.294229949278039360e-01
1.290000000000000036e+00 1.750652784237176907e-01
1.300000000000000044e+00 1.141181227205722848e-01
1.310000000000000053e+00 4.973351425387630143e-02
1.320000000000000062e+00 -1.547601817320928309e-02
1.330000000000000071e+00 -7.880826261599253868e-02
1.340000000000000080e+00 -1.369321853730958438e-01
1.350000000000000089e+00 -1.882377647604537019e-01
1.360000000000000098e+00 -2.296127799694042682e-01
1.370000000000000107e+00 -2.601923936297345641e-01
1.380000000000000115e+00 -2.781481168248894353e-01
1.390000000000000124e+00 -2.830444060866471045e-01
1.400000000000000133e+00 -2.749447515628043459e-01
1.409999999999999920e+00 -2.537163115800520341e-01
1.419999999999999929e+00 -2.213132621613408124e-01
1.429999999999999938e+00 -1.780094077192402591e-01
1.439999999999999947e+00 -1.270504872681132158e-01
1.449999999999999956e+00 -6.940869180369141356e-02
1.459999999999999964e+00 -8.545045240272740317e-03
1.469999999999999973e+00 5.339543685685189944e-02
1.479999999999999982e+00 1.137256408750005887e-01
1.489999999999999991e+00 1.698115863134177506e-01
1.500000000000000000e+00 2.195417352545012968e-01
1.510000000000000009e+00 2.608878200497405930e-01
1.520000000000000018e+00 2.920549919653627202e-01
1.530000000000000027e+00 3.124705171885052146e-01
1.540000000000000036e+00 3.205141925449955798e-01
1.550000000000000044e+00 3.174447764379534354e-01
1.560000000000000053e+00 3.018707144089687322e-01
1.570000000000000062e+00 2.765524992313312946e-01
1.580000000000000071e+00 2.410026783307810672e-01
1.590000000000000080e+00 1.983400767459224112e-01
1.600000000000000089e+00 1.495591847027840926e-01
1.610000000000000098e+00 9.734866960961716109e-02
1.620000000000000107e+00 4.366798713659349185e-02
1.630000000000000115e+00 -9.122690165241689395e-03
1.640000000000000124e+00 -5.905677110706604449e-02
1.650000000000000133e+00 -1.039281351762889744e-01
1.660000000000000142e+00 -1.426585689405686919e-01
1.669999999999999929e+00 -1.730736297538209845e-01
1.679999999999999938e+00 -1.955742662561344158e-01
1.689999999999999947e+00 -2.080439991892132079e-01
1.699999999999999956e+00 -2.122088802709849731e-01
1.709999999999999964e+00 -2.070673030413664462e-01
1.719999999999999973e+00 -1.945546132107661974e-01
1.729999999999999982e+00 -1.751262605982953913e-01
1.739999999999999991e+00 -1.506941736182647040e-01
1.750000000000000000e+00 -1.227560622907166027e-01
1.760000000000000009e+00 -9.322093925977868734e-02
1.770000000000000018e+00 -6.388462373585848675e-02
1.780000000000000027e+00 -3.676625971666793585e-02
1.790000000000000036e+00 -1.313649595622375446e-02
1.800000000000000044e+00 4.776435136501871320e-03
1.810000000000000053e+00 1.678740294701566022e-02
1.820000000000000062e+00 2.079076808864061682e-02
1.830000000000000071e+00 1.750218455422264396e-02
1.840000000000000080e+00 5.784595653655267081e-03
1.850000000000000089e+00 -1.335569497538713173e-02
1.860000000000000098e+00 -3.977048608248216072e-02
1.870000000000000107e+00 -7.229901746365192949e-02
1.880000000000000115e+00 -1.097293292055049330e-01
1.890000000000000124e+00 -1.507351174599033672e-01
1.900000000000000133e+00 -1.936037087405990120e-01
1.910000000000000142e+00 -2.367366610360005508e-01
1.919999999999999929e+00 -2.786536172646960630e-01
1.929999999999999938e+00 -3.173689578182724014e-01
1.939999999999999947e+00 -3.521542717022657087e-01
1.949999999999999956e+00 -3.811207883825912801e-01
1.959999999999999964e+00 -4.041127212328652352e-01
1.969999999999999973e+00 -4.199777213166196455e-01
1.979999999999999982e+00 -4.288841626329872314e-01
1.989999999999999991e+00 -4.307549577764276938e-01
2.000000000000000000e+00 -4.259615864444352695e-01
2.010000000000000231e+00 -4.154549420932569515e-01
2.020000000000000018e+00 -3.998060602921370554e-01
2.030000000000000249e+00 -3.806046651257890545e-01
2.040000000000000036e+00 -3.587021792100796858e-01
2.049999999999999822e+00 -3.357244792784048193e-01
2.060000000000000053e+00 -3.128909497607610946e-01
2.069999999999999840e+00 -2.913477754756802485e-01
2.080000000000000071e+00 -2.723574834600718808e-01
2.089999999999999858e+00 -2.565522876002038211e-01
2.100000000000000089e+00 -2.447127662124017611e-01
2.109999999999999876e+00 -2.370697375265395646e-01
2.120000000000000107e+00 -2.335867996954483494e-01
2.129999999999999893e+00 -2.341294414791744438e-01
2.140000000000000124e+00 -2.378493772316422061e-01
2.149999999999999911e+00 -2.441820570099751120e-01
2.160000000000000142e+00 -2.518141247080009082e-01
2.169999999999999929e+00 -2.596125860332155200e-01
2.180000000000000160e+00 -2.663142054649667578e-01
2.189999999999999947e+00 -2.703090194214661235e-01
2.200000000000000178e+00 -2.706472394356335132e-01
2.209999999999999964e+00 -2.657875472745268031e-01
2.220000000000000195e+00 -2.550138355326305173e-01
2.229999999999999982e+00 -2.374660914556379621e-01
2.240000000000000213e+00 -2.126041856269596519e-01
2.250000000000000000e+00 -1.806454168870850197e-01
2.260000000000000231e+00 -1.412670159299921069e-01
2.270000000000000018e+00 -9.580735818895169675e-02
2.280000000000000249e+00 -4.433746749073246007e-02
2.290000000000000036e+00 1.107518394739131183e-02
2.300000000000000266e+00 6.955585452027904236e-02
2.310000000000000053e+00 1.290079903241206638e-01
2.319999999999999840e+00 1.876951392902270199e-01
2.330000000000000071e+00 2.437836930878350683e-01
2.339999999999999858e+00 2.952910497137125612e-01
2.350000000000000089e+00 3.404894527526508008e-01
2.359999999999999876e+00 3.779626248275517741e-01
2.370000000000000107e+00 4.059380523701777710e-01
2.379999999999999893e+00 4.242382213809631764e-01
2.390000000000000124e+00 4.309991639918352990e-01
2.399999999999999911e+00 4.276263295507782281e-01
2.410000000000000142e+00 4.122886198791095858e-01
2.419999999999999929e+00 3.875878873423955207e-01
2.430000000000000160e+00 3.529038372601623896e-01
2.439999999999999947e+00 3.107693923941668990e-01
2.450000000000000178e+00 2.620616333049621827e-01
2.459999999999999964e+00 2.090919258116253343e-01
2.470000000000000195e+00 1.536893022634328032e-01
2.479999999999999982e+00 9.807923863956789778e-02
2.490000000000000213e+00 4.420587628486336018e-02
2.500000000000000000e+00 -5.593403507994333494e-03
2.510000000000000231e+00 -5.012554915552983048e-02
2.520000000000000018e+00 -8.679038335971508977e-02
2.530000000000000249e+00 -1.156936527572487855e-01
2.540000000000000036e+00 -1.343369950767205334e-01
2.550000000000000266e+00 -1.438154941749661409e-01
2.560000000000000053e+00 -1.427552140021166593e-01
2.569999999999999840e+00 -1.324518935276231268e-01
2.580000000000000071e+00 -1.130207110713253998e-01
2.589999999999999858e+00 -8.582416018733173002e-02
2.600000000000000089e+00 -5.222138441053021662e-02
2.609999999999999876e+00 -1.367891605604442361e-02
2.620000000000000107e+00 2.780890549565048081e-02
2.629999999999999893e+00 7.052081438457914742e-02
2.640000000000000124e+00 1.126290823250656603e-01
2.649999999999999911e+00 1.519883758290011266e-01
2.660000000000000142e+00 1.875497527335788783e-01
2.669999999999999929e+00 2.171633874433943900e-01
2.680000000000000160e+00 2.404525601890517006e-01
2.689999999999999947e+00 2.559715934454410702e-01
2.700000000000000178e+00 2.637208272531916808e-01
2.709999999999999964e+00 2.634066619603326331e-01
2.720000000000000195e+00 2.552573441492713147e-01
2.729999999999999982e+00 2.401731971916733765e-01
2.740000000000000213e+00 2.186043896577690993e-01
2.750000000000000000e+00 1.923018993549641398e-01
2.760000000000000231e+00 1.620517447331209782e-01
2.770000000000000018e+00 1.298244853653413022e-01
2.780000000000000249e+00 9.693092827253220467e-02
2.790000000000000036e+00 6.493394701364955945e-02
2.800000000000000266e+00 3.542367895115718784e-02
2.810000000000000053e+00 9.455107959186817568e-03
2.819999999999999840e+00 -1.170743698753418105e-02
2.830000000000000071e+00 -2.735420088044067735e-02
2.839999999999999858e+00 -3.705344685334654997e-02
2.850000000000000089e+00 -4.034142516899874575e-02
2.859999999999999876e+00 -3.781519017447779879e-02
2.870000000000000107e+00 -2.926930385075987226e-02
2.879999999999999893e+00 -1.616851907088559526e-02
2.890000000000000124e+00 1.310951335685515279e-03
2.899999999999999911e+00 2.135617638086750175e-02
2.910000000000000142e+00 4.307763150060684582e-02
2.919999999999999929e+00 6.494779235786546367e-02
2.930000000000000160e+00 8.564000629079369931e-02
2.939999999999999947e+00 1.039117661561958506e-01
2.950000000000000178e+00 1.185944197654985460e-01
2.959999999999999964e+00 1.286340339515017750e-01
2.970000000000000195e+00 1.335470366908415862e-01
2.979999999999999982e+00 1.324155535800706773e-01
2.990000000000000213e+00 1.257280885352644595e-01
3.000000000000000000e+00 1.127506409724869652e-01
3.010000000000000231e+00 9.484542655654458476e-02
3.020000000000000018e+00 7.180060552135811291e-02
3.030000000000000249e+00 4.529601788030507281e-02
3.040000000000000036e+00 1.598595711098045255e-02
3.050000000000000266e+00 -1.459622532002056994e-02
3.060000000000000053e+00 -4.521604100267988952e-02
3.070000000000000284e+00 -7.444047469677367301e-02
3.080000000000000071e+00 -1.010365861646656399e-01
3.089999999999999858e+00 -1.235782620624980982e-01
3.100000000000000089e+00 -1.414109816116717044e-01
3.109999999999999876e+00 -1.530525160208072999e-01
3.120000000000000107e+00 -1.588343335961898140e-01
3.129999999999999893e+00 -1.572509946270215231e-01
3.140000000000000124e+00 -1.495456907280633962e-01
3.149999999999999911e+00 -1.349260945633614650e-01
3.160000000000000142e+00 -1.148013859341719262e-01
3.169999999999999929e+00 -8.941150376248589715e-02
3.180000000000000160e+00 -6.013503874283782080e-02
3.189999999999999947e+00 -2.800584908599319106e-02
3.200000000000000178e+00 5.597591684546085467e-03
3.209999999999999964e+00 3.935351116670563615e-02
3.220000000000000195e+00 7.178498015438619650e-02
3.229999999999999982e+00 1.018751851875918102e-01
3.240000000000000213e+00 1.279540928568131120e-01
3.250000000000000000e+00 1.497602981071429751e-01
3.260000000000000231e+00 1.656067265954390411e-01
3.270000000000000018e+00 1.759234430595509324e-01
3.280000000000000249e+00 1.796648720581877634e-01
3.290000000000000036e+00 1.774789788885887676e-01
3.300000000000000266e+00 1.692691777994534130e-01
3.310000000000000053e+00 1.557874954798283418e-01
3.320000000000000284e+00 1.377974884716035298e-01
3.330000000000000071e+00 1.161513406143885596e-01
3.339999999999999858e+00 9.211581929614637287e-02
3.350000000000000089e+00 6.671927306971088545e-02
3.359999999999999876e+00 4.121493278391033521e-02
3.370000000000000107e+00 1.690363566244075175e-02
3.379999999999999893e+00 -5.413616101586960633e-03
3.390000000000000124e+00 -2.438781189334529240e-02
3.399999999999999911e+00 -3.968703710840910948e-02
3.410000000000000142e+00 -5.037477266925867447e-02
3.419999999999999929e+00 -5.641006661423059870e-02
3.430000000000000160e+00 -5.758443856320700355e-02
3.439999999999999947e+00 -5.405362158166949343e-02
3.450000000000000178e+00 -4.637867945175455642e-02
3.459999999999999964e+00 -3.490710663174320660e-02
3.470000000000000195e+00 -2.074352503623533295e-02
3.479999999999999982e+00 -4.497615574889423339e-03
3.490000000000000213e+00 1.260394915816051217e-02
3.500000000000000000e+00 2.959366484942460573e-02
3.510000000000000231e+00 4.552409335098040605e-02
3.520000000000000018e+00 5.928337501810830579e-02
3.530000000000000249e+00 7.025439624718168852e-02
3.540000000000000036e+00 7.760646086649558573e-02
3.550000000000000266e+00 8.095830686686068811e-02
3.560000000000000053e+00 8.009696054760150064e-02
3.570000000000000284e+00 7.483005760735367273e-02
3.580000000000000071e+00 6.567000544696659226e-02
3.589999999999999858e+00 5.264612241561220096e-02
3.600000000000000089e+00 3.684287880319655345e-02
3.609999999999999876e+00 1.862037407697084146e-02
3.620000000000000107e+00 -7.496326595170225591e-04
3.629999999999999893e+00 -2.040303788706053847e-02
3.640000000000000124e+00 -3.927791916019374857e-02
3.649999999999999911e+00 -5.626090711656669269e-02
3.660000000000000142e+00 -7.048052931008233490e-02
3.669999999999999929e+00 -8.103485940048285596e-02
3.680000000000000160e+00 -8.716399946728360659e-02
3.689999999999999947e+00 -8.857117196636751788e-02
3.700000000000000178e+00 -8.457077733792239815e-02
3.709999999999999964e+00 -7.567035019555433395e-02
3.720000000000000195e+00 -6.130350628276775432e-02
3.729999999999999982e+00 -4.267910201700125111e-02
3.740000000000000213e+00 -1.962083404325122571e-02
3.750000000000000000e+00 6.427550405213955029e-03
3.760000000000000231e+00 3.494751191631603054e-02
3.770000000000000018e+00 6.466422279409972385e-02
3.780000000000000249e+00 9.459118378048454734e-02
3.790000000000000036e+00 1.235745467955395027e-01
3.800000000000000266e+00 1.506276583598724905e-01
3.810000000000000053e+00 1.746350871466087473e-01
3.820000000000000284e+00 1.950646236289760582e-01
3.830000000000000071e+00 2.107826376914146427e-01
3.839999999999999858e+00 2.220255214428986934e-01
3.850000000000000089e+00 2.276603505031664088e-01
3.859999999999999876e+00 2.286356081484844649e-01
