# [DEFAULT]
# # input and output specifications
# dataformat = QA
# outputtype = gr
# 
# # PDF calculation setup
# mode = xray
# wavelength = 
# composition = Cl4.0Cr1.0Na1.0
# bgscale = 1.0
# rpoly = 0.9
# qmaxinst = 28
# qmin = 0.0
# qmax = 22
# rmin = 0.0
# rmax = 30.0
# rstep = 0.01
# 
# # End of config --------------------------------------------------------------
# 
# #### start data
# #S 1
# #L r(Å)  G(Å$^$)
# 
0.000000000000000000e+00 0.000000000000000000e+00
1.000000000000000021e-02 -4.118032168188587826e-03
2.000000000000000042e-02 -8.275471560841643481e-03
2.999999999999999889e-02 -1.250868800385098768e-02
4.000000000000000083e-02 -1.681268048502930143e-02
5.000000000000000278e-02 -2.116253321652333472e-02
5.999999999999999778e-02 -2.548038656171214972e-02
7.000000000000000666e-02 -2.965321872656352317e-02
8.000000000000000167e-02 -3.350508476223636872e-02
8.999999999999999667e-02 -3.686842795466216405e-02
1.000000000000000056e-01 -3.944632709427125378e-02
1.100000000000000006e-01 -4.111134749580177411e-02
1.199999999999999956e-01 -4.143470167127083492e-02
1.300000000000000044e-01 -4.042843348811157866e-02
1.400000000000000133e-01 -3.763684064409477531e-02
1.499999999999999944e-01 -3.319830891519619243e-02
1.600000000000000033e-01 -2.684557292667039824e-02
1.700000000000000122e-01 -1.878057824715975363e-02
1.799999999999999933e-01 -9.047938666300586047e-03
1.900000000000000022e-01 2.060289426992267803e-03
2.000000000000000111e-01 1.418890640873069105e-02
2.099999999999999922e-01 2.689755781410866839e-02
2.200000000000000011e-01 3.964880981244654073e-02
2.300000000000000100e-01 5.177255220888064835e-02
2.399999999999999911e-01 6.278998581427017167e-02
2.500000000000000000e-01 7.172407272726635807e-02
2.600000000000000089e-01 7.834595859476205237e-02
2.700000000000000178e-01 8.166087857767027891e-02
2.800000000000000266e-01 8.157853519504673634e-02
2.899999999999999800e-01 7.743514105666698955e-02
2.999999999999999889e-01 6.924171932276186603e-02
3.099999999999999978e-01 5.691104103635392930e-02
3.200000000000000067e-01 4.057507344256552906e-02
3.300000000000000155e-01 2.079693967192896425e-02
3.400000000000000244e-01 -2.072194403083741157e-03
3.500000000000000333e-01 -2.696951931699611768e-02
3.599999999999999867e-01 -5.315097866697118117e-02
3.699999999999999956e-01 -7.940837364211605909e-02
3.800000000000000044e-01 -1.044474902052554555e-01
3.900000000000000133e-01 -1.272408320609624277e-01
4.000000000000000222e-01 -1.462204177716338038e-01
4.100000000000000311e-01 -1.605060665948896403e-01
4.199999999999999845e-01 -1.687940254340531410e-01
4.299999999999999933e-01 -1.702508194206884540e-01
4.400000000000000022e-01 -1.643559832772998053e-01
4.500000000000000111e-01 -1.502904022916555504e-01
4.600000000000000200e-01 -1.286429124746762964e-01
4.700000000000000289e-01 -9.870481452757508267e-02
4.799999999999999822e-01 -6.218605061181097654e-02
4.899999999999999911e-01 -1.874030189925727716e-02
5.000000000000000000e-01 2.928416262361869388e-02
5.100000000000000089e-01 8.111001075193677301e-02
5.200000000000000178e-01 1.345781676948864802e-01
5.300000000000000266e-01 1.879417718497164991e-01
5.400000000000000355e-01 2.391225705167976390e-01
5.500000000000000444e-01 2.861279002266105542e-01
5.600000000000000533e-01 3.267622108686603632e-01
5.700000000000000622e-01 3.596375335450906485e-01
5.799999999999999600e-01 3.822692726312367228e-01
5.899999999999999689e-01 3.946331908142191591e-01
5.999999999999999778e-01 3.939175039519406951e-01
6.099999999999999867e-01 3.817086966451587182e-01
6.199999999999999956e-01 3.556775161678524810e-01
6.300000000000000044e-01 3.182089478227062562e-01
6.400000000000000133e-01 2.686313250668908581e-01
6.500000000000000222e-01 2.092925102573321428e-01
6.600000000000000311e-01 1.413144343981556916e-01
6.700000000000000400e-01 6.706202170592652501e-02
6.800000000000000488e-01 -1.113872861448045315e-02
6.900000000000000577e-01 -9.067175033259886052e-02
7.000000000000000666e-01 -1.689721791680740548e-01
7.099999999999999645e-01 -2.428555976532624783e-01
7.199999999999999734e-01 -3.106396102430082351e-01
7.299999999999999822e-01 -3.683061767866081526e-01
7.399999999999999911e-01 -4.156232600413772293e-01
7.500000000000000000e-01 -4.489846706539657450e-01
7.600000000000000089e-01 -4.687601414230828101e-01
7.700000000000000178e-01 -4.729017710972250321e-01
7.800000000000000266e-01 -4.620251997308404968e-01
7.900000000000000355e-01 -4.361622520758065558e-01
8.000000000000000444e-01 -3.960727510704034615e-01
8.100000000000000533e-01 -3.437847789151088906e-01
8.200000000000000622e-01 -2.803498615770435021e-01
8.300000000000000711e-01 -2.091250561219780701e-01
8.399999999999999689e-01 -1.318015013778976730e-01
8.499999999999999778e-01 -5.196046595170401156e-02
8.599999999999999867e-01 2.764450866440309323e-02
8.699999999999999956e-01 1.042024943691903793e-01
8.800000000000000044e-01 1.744292770750697774e-01
8.900000000000000133e-01 2.362566306804915750e-01
9.000000000000000222e-01 2.870207062317086111e-01
9.100000000000000311e-01 3.250431506014729299e-01
9.200000000000000400e-01 3.492858816322026994e-01
9.300000000000000488e-01 3.582468259830397517e-01
9.400000000000000577e-01 3.530238879179600775e-01
9.500000000000000666e-01 3.323143151764553216e-01
9.599999999999999645e-01 2.992362326831699559e-01
9.699999999999999734e-01 2.529673378847429044e-01
9.799999999999999822e-01 1.976588115471093754e-01
9.899999999999999911e-01 1.342180861748130671e-01
1.000000000000000000e+00 6.622225380810344009e-02
1.010000000000000009e+00 -3.957688631971701537e-03
1.020000000000000018e+00 -7.323535555838792122e-02
1.030000000000000027e+00 -1.389102136985769231e-01
1.040000000000000036e+00 -1.981214104461386794e-01
1.050000000000000044e+00 -2.490260123137308101e-01
1.060000000000000053e+00 -2.887570653068393667e-01
1.070000000000000062e+00 -3.172451900443752359e-01
1.080000000000000071e+00 -3.315573882479249113e-01
1.090000000000000080e+00 -3.335944341557712800e-01
1.100000000000000089e+00 -3.211776162507158361e-01
1.110000000000000098e+00 -2.971641094093053770e-01
1.120000000000000107e+00 -2.612733909247509367e-01
1.130000000000000115e+00 -2.162904090085560616e-01
1.140000000000000124e+00 -1.637560560743694660e-01
1.150000000000000133e+00 -1.063790877291404952e-01
1.159999999999999920e+00 -4.667730315717307649e-02
1.169999999999999929e+00 1.253763210964771793e-02
1.179999999999999938e+00 6.889242439873219381e-02
1.189999999999999947e+00 1.192426255258665774e-01
1.199999999999999956e+00 1.624595057998816372e-01
1.209999999999999964e+00 1.949339567611094448e-01
1.219999999999999973e+00 2.171663494548207729e-01
1.229999999999999982e+00 2.263755271831141558e-01
1.239999999999999991e+00 2.236859241432623269e-01
1.250000000000000000e+00 2.080710531522100837e-01
1.260000000000000009e+00 1.809235074353503503e-01
1.270000000000000018e+00 1.431040159530560518e-01
1.280000000000000027e+00 9.620907020305681512e-02
1.290000000000000036e+00 4.251571777890900822e-02
1.300000000000000044e+00 -1.603146961333416082e-02
1.310000000000000053e+00 -7.665692814281832579e-02
1.320000000000000062e+00 -1.368087959643710660e-01
1.330000000000000071e+00 -1.942540647776737628e-01
1.340000000000000080e+00 -2.458414009985865345e-01
1.350000000000000089e+00 -2.903654814260422379e-01
1.360000000000000098e+00 -3.250004072649195219e-01
1.370000000000000107e+00 -3.491759294920913637e-01
1.380000000000000115e+00 -3.613406297334348372e-01
1.390000000000000124e+00 -3.612797819233041219e-01
1.400000000000000133e+00 -3.492089713520714622e-01
1.409999999999999920e+00 -3.251720005489391330e-01
1.419999999999999929e+00 -2.910859426816866380e-01
1.429999999999999938e+00 -2.473679957457650957e-01
1.439999999999999947e+00 -1.970376840095551529e-01
1.449999999999999956e+00 -1.411661315591932475e-01
1.459999999999999964e+00 -8.288294996824324690e-02
1.469999999999999973e+00 -2.428884671423917063e-02
1.479999999999999982e+00 3.221900640360456786e-02
1.489999999999999991e+00 8.417374848159711598e-02
1.500000000000000000e+00 1.297048406379353314e-01
1.510000000000000009e+00 1.669821305967425784e-01
1.520000000000000018e+00 1.944171035605319897e-01
1.530000000000000027e+00 2.115742896073204982e-01
1.540000000000000036e+00 2.170202728160482430e-01
1.550000000000000044e+00 2.120264809985591969e-01
1.560000000000000053e+00 1.953741461352719311e-01
1.570000000000000062e+00 1.697036336602497919e-01
1.580000000000000071e+00 1.346429793571862210e-01
1.590000000000000080e+00 9.312854527474963284e-02
1.600000000000000089e+00 4.615452426570373912e-02
1.610000000000000098e+00 -3.762685527218428191e-03
1.620000000000000107e+00 -5.476075587052418869e-02
1.630000000000000115e+00 -1.046337618376310535e-01
1.640000000000000124e+00 -1.515485179515120295e-01
1.650000000000000133e+00 -1.934376575817983168e-01
1.660000000000000142e+00 -2.293278981713527676e-01
1.669999999999999929e+00 -2.571721566927124281e-01
1.679999999999999938e+00 -2.773995768222646263e-01
1.689999999999999947e+00 -2.880077808304902787e-01
1.699999999999999956e+00 -2.906693263450236264e-01
1.709999999999999964e+00 -2.844347585920549704e-01
1.719999999999999973e+00 -2.711546306961772901e-01
1.729999999999999982e+00 -2.512572954169630668e-01
1.739999999999999991e+00 -2.265576029987923234e-01
1.750000000000000000e+00 -1.984709352318355102e-01
1.760000000000000009e+00 -1.688024058542388073e-01
1.770000000000000018e+00 -1.392550508719969660e-01
1.780000000000000027e+00 -1.117368627558103095e-01
1.790000000000000036e+00 -8.746296432345923577e-02
1.800000000000000044e+00 -6.854271110695869806e-02
1.810000000000000053e+00 -5.517110232378284046e-02
1.820000000000000062e+00 -4.934946885080873646e-02
1.830000000000000071e+00 -5.041973587843277121e-02
1.840000000000000080e+00 -5.947200475332333619e-02
1.850000000000000089e+00 -7.556583795660534730e-02
1.860000000000000098e+00 -9.856885669000396699e-02
1.870000000000000107e+00 -1.273811638015543979e-01
1.880000000000000115e+00 -1.608451977628642671e-01
1.890000000000000124e+00 -1.976806545671877247e-01
1.900000000000000133e+00 -2.362332445062361175e-01
1.910000000000000142e+00 -2.749247595477153916e-01
1.919999999999999929e+00 -3.123085520753393074e-01
1.929999999999999938e+00 -3.463768235769230652e-01
1.939999999999999947e+00 -3.763971354848090201e-01
1.949999999999999956e+00 -4.004080896617411844e-01
1.959999999999999964e+00 -4.182070013197439207e-01
1.969999999999999973e+00 -4.285271996889952195e-01
1.979999999999999982e+00 -4.314483829915233271e-01
1.989999999999999991e+00 -4.267725992894442766e-01
2.000000000000000000e+00 -4.147405761683474190e-01
2.010000000000000231e+00 -3.962321491130373907e-01
2.020000000000000018e+00 -3.716495357462358262e-01
2.030000000000000249e+00 -3.426202722875397733e-01
2.040000000000000036e+00 -3.098068583328389414e-01
2.049999999999999822e+00 -2.750063047974258268e-01
2.060000000000000053e+00 -2.393103409952183347e-01
2.069999999999999840e+00 -2.041146895014331053e-01
2.080000000000000071e+00 -1.707242838620282588e-01
2.089999999999999858e+00 -1.400418752278121959e-01
2.100000000000000089e+00 -1.130644520905701167e-01
2.109999999999999876e+00 -9.034067751866811657e-02
2.120000000000000107e+00 -7.214692186080093328e-02
2.129999999999999893e+00 -5.875720443552227140e-02
2.140000000000000124e+00 -4.960423683544811641e-02
2.149999999999999911e+00 -4.467150412022637129e-02
2.160000000000000142e+00 -4.274153741200650836e-02
2.169999999999999929e+00 -4.340497130689054128e-02
2.180000000000000160e+00 -4.525243117103650708e-02
2.189999999999999947e+00 -4.732004854949575789e-02
2.200000000000000178e+00 -4.846144903783601576e-02
2.209999999999999964e+00 -4.748967315441433856e-02
2.220000000000000195e+00 -4.350031126601655584e-02
2.229999999999999982e+00 -3.560937644569533989e-02
2.240000000000000213e+00 -2.309334619942027961e-02
2.250000000000000000e+00 -5.782719488963420501e-03
2.260000000000000231e+00 1.687050308897512091e-02
2.270000000000000018e+00 4.416208375776955325e-02
2.280000000000000249e+00 7.637184951305381331e-02
2.290000000000000036e+00 1.121163742371473065e-01
2.300000000000000266e+00 1.510936824881645713e-01
2.310000000000000053e+00 1.917606548132141098e-01
2.319999999999999840e+00 2.330853000898740479e-01
2.330000000000000071e+00 2.736674868944797834e-01
2.339999999999999858e+00 3.121337997641621120e-01
2.350000000000000089e+00 3.471477240134513975e-01
2.359999999999999876e+00 3.775875890481568686e-01
2.370000000000000107e+00 4.020814666052268116e-01
2.379999999999999893e+00 4.202926163163132611e-01
2.390000000000000124e+00 4.307696103436551849e-01
2.399999999999999911e+00 4.342815796485012259e-01
2.410000000000000142e+00 4.293647959586133767e-01
2.419999999999999929e+00 4.176884721911380827e-01
2.430000000000000160e+00 3.986168175277263748e-01
2.439999999999999947e+00 3.738363689414960778e-01
2.450000000000000178e+00 3.437944762361776485e-01
2.459999999999999964e+00 3.100507255874399570e-01
2.470000000000000195e+00 2.737974912729737587e-01
2.479999999999999982e+00 2.365310226110172998e-01
2.490000000000000213e+00 1.996203738953800655e-01
2.500000000000000000e+00 1.646141791689982870e-01
2.510000000000000231e+00 1.324479545625109611e-01
2.520000000000000018e+00 1.048139098611424458e-01
2.530000000000000249e+00 8.180338387121117993e-02
2.540000000000000036e+00 6.502301061049049757e-02
2.550000000000000266e+00 5.386734762222146478e-02
2.560000000000000053e+00 4.920149303935727331e-02
2.569999999999999840e+00 5.021329381132353525e-02
2.580000000000000071e+00 5.678281325203873853e-02
2.589999999999999858e+00 6.798911602119070419e-02
2.600000000000000089e+00 8.289819049313890131e-02
2.609999999999999876e+00 1.004641374810715387e-01
2.620000000000000107e+00 1.193696879588679177e-01
2.629999999999999893e+00 1.383549179131795259e-01
2.640000000000000124e+00 1.562837301201771834e-01
2.649999999999999911e+00 1.715886844906181763e-01
2.660000000000000142e+00 1.837211340675948823e-01
2.669999999999999929e+00 1.911793368793752723e-01
2.680000000000000160e+00 1.938697585526876210e-01
2.689999999999999947e+00 1.908744667864490097e-01
2.700000000000000178e+00 1.823604738280469317e-01
2.709999999999999964e+00 1.682776732501433947e-01
2.720000000000000195e+00 1.489766366668502373e-01
2.729999999999999982e+00 1.252496088233122917e-01
2.740000000000000213e+00 9.765755759511698941e-02
2.750000000000000000e+00 6.752498731029636658e-02
2.760000000000000231e+00 3.573165771884560110e-02
2.770000000000000018e+00 3.637855894154288106e-03
2.780000000000000249e+00 -2.745829751204374725e-02
2.790000000000000036e+00 -5.656575831912168117e-02
2.800000000000000266e+00 -8.227783704816332699e-02
2.810000000000000053e+00 -1.039442217080990827e-01
2.819999999999999840e+00 -1.205514719038528054e-01
2.830000000000000071e+00 -1.316586008992814971e-01
2.839999999999999858e+00 -1.370210510916047564e-01
2.850000000000000089e+00 -1.363370738639304303e-01
2.859999999999999876e+00 -1.302494288780325360e-01
2.870000000000000107e+00 -1.186205260923949983e-01
2.879999999999999893e+00 -1.028123499978602501e-01
2.890000000000000124e+00 -8.296642896482350760e-02
2.899999999999999911e+00 -6.070563213488317650e-02
2.910000000000000142e+00 -3.675903745935445860e-02
2.919999999999999929e+00 -1.245879926050404672e-02
2.930000000000000160e+00 1.109952226155723476e-02
2.939999999999999947e+00 3.285905079378023674e-02
2.950000000000000178e+00 5.184996366893853542e-02
2.959999999999999964e+00 6.719467466509965181e-02
2.970000000000000195e+00 7.847866240887040046e-02
2.979999999999999982e+00 8.494617976018990768e-02
2.990000000000000213e+00 8.696802959965818647e-02
3.000000000000000000e+00 8.393496535819869320e-02
3.010000000000000231e+00 7.692153993577247051e-02
3.020000000000000018e+00 6.572414523791252072e-02
3.030000000000000249e+00 5.167027089303781462e-02
3.040000000000000036e+00 3.523501525906256454e-02
3.050000000000000266e+00 1.761626183644439750e-02
3.060000000000000053e+00 -2.565010465336615975e-04
3.070000000000000284e+00 -1.728825382544746034e-02
3.080000000000000071e+00 -3.254797597267403836e-02
3.089999999999999858e+00 -4.497989706791720443e-02
3.100000000000000089e+00 -5.409175132900222172e-02
3.109999999999999876e+00 -5.882755848296661316e-02
3.120000000000000107e+00 -5.943307802773160203e-02
3.129999999999999893e+00 -5.488652664860139280e-02
3.140000000000000124e+00 -4.610868705818579882e-02
3.149999999999999911e+00 -3.263365770850834569e-02
3.160000000000000142e+00 -1.551828422514242752e-02
3.169999999999999929e+00 4.946890705963469768e-03
3.180000000000000160e+00 2.770982228660281294e-02
3.189999999999999947e+00 5.193571978544942597e-02
3.200000000000000178e+00 7.655505924041536292e-02
3.209999999999999964e+00 1.005941914045468122e-01
3.220000000000000195e+00 1.228987563988812037e-01
3.229999999999999982e+00 1.428108027302289196e-01
3.240000000000000213e+00 1.590359644737489586e-01
3.250000000000000000e+00 1.715510957635978107e-01
3.260000000000000231e+00 1.790960580824004222e-01
3.270000000000000018e+00 1.821804628936313508e-01
3.280000000000000249e+00 1.801089561995787569e-01
3.290000000000000036e+00 1.735325555642996398e-01
3.300000000000000266e+00 1.625225215225341857e-01
3.310000000000000053e+00 1.478010953333048216e-01
3.320000000000000284e+00 1.300807139912625865e-01
3.330000000000000071e+00 1.101693087788171987e-01
3.339999999999999858e+00 8.909174034683388366e-02
3.350000000000000089e+00 6.781099820801915479e-02
3.359999999999999876e+00 4.722844201915502027e-02
3.370000000000000107e+00 2.853475626180272326e-02
3.379999999999999893e+00 1.218332996096027458e-02
3.390000000000000124e+00 -6.727329174654799945e-04
3.399999999999999911e+00 -9.949476411885430777e-03
3.410000000000000142e+00 -1.493237986503250132e-02
3.419999999999999929e+00 -1.574958282687892452e-02
3.430000000000000160e+00 -1.235006364033383944e-02
3.439999999999999947e+00 -5.010831427124176618e-03
3.450000000000000178e+00 5.673302270749840809e-03
3.459999999999999964e+00 1.926106487510118037e-02
3.470000000000000195e+00 3.475096909928698102e-02
3.479999999999999982e+00 5.146113258869388501e-02
3.490000000000000213e+00 6.836687730991163059e-02
3.500000000000000000e+00 8.447723374037606481e-02
3.510000000000000231e+00 9.905858929932737089e-02
3.520000000000000018e+00 1.110530894480909331e-01
3.530000000000000249e+00 1.200021636785128382e-01
3.540000000000000036e+00 1.251653449331104062e-01
3.550000000000000266e+00 1.262651339135164585e-01
3.560000000000000053e+00 1.231576233222849703e-01
3.570000000000000284e+00 1.157015620417520402e-01
3.580000000000000071e+00 1.044220846479246151e-01
3.589999999999999858e+00 8.934335819106431487e-02
3.600000000000000089e+00 7.150505223891868989e-02
3.609999999999999876e+00 5.119371993213935740e-02
3.620000000000000107e+00 2.960575055131388356e-02
3.629999999999999893e+00 7.466486104341482979e-03
3.640000000000000124e+00 -1.424647178391775550e-02
3.649999999999999911e+00 -3.458214248577272387e-02
3.660000000000000142e+00 -5.276166373090967338e-02
3.669999999999999929e+00 -6.800853573782233985e-02
3.680000000000000160e+00 -7.966609918991367223e-02
3.689999999999999947e+00 -8.746940579785524028e-02
3.700000000000000178e+00 -9.084438672669813142e-02
3.709999999999999964e+00 -9.020318071895476464e-02
3.720000000000000195e+00 -8.508516485166284227e-02
3.729999999999999982e+00 -7.648789763867200331e-02
3.740000000000000213e+00 -6.428116385027088375e-02
3.750000000000000000e+00 -4.965557498323292657e-02
3.760000000000000231e+00 -3.305108513912138196e-02
3.770000000000000018e+00 -1.551449767671244165e-02
3.780000000000000249e+00 2.141552017338225165e-03
3.790000000000000036e+00 1.897953087044713591e-02
3.800000000000000266e+00 3.420462852037009505e-02
3.810000000000000053e+00 4.692679562887815126e-02
3.820000000000000284e+00 5.673988019938015770e-02
3.830000000000000071e+00 6.276338166836473165e-02
3.839999999999999858e+00 6.522487184032051133e-02
3.850000000000000089e+00 6.327986011064858085e-02
3.859999999999999876e+00 5.772993673921893859e-02
