# [DEFAULT]
# # input and output specifications
# dataformat = QA
# outputtype = gr
# 
# # PDF calculation setup
# mode = xray
# wavelength = 
# composition = Cl4.0Cr1.0Na1.0
# bgscale = 1.0
# rpoly = 0.9
# qmaxinst = 28
# qmin = 0.0
# qmax = 22
# rmin = 0.0
# rmax = 30.0
# rstep = 0.01
# 
# # End of config --------------------------------------------------------------
# 
# #### start data
# #S 1
# #L r(Å)  G(Å$^$)
# 
0.000000000000000000e+00 0.000000000000000000e+00
1.000000000000000021e-02 -3.831603511387960022e-03
2.000000000000000042e-02 -7.723816869643453271e-03
2.999999999999999889e-02 -1.173858162587441793e-02
4.000000000000000083e-02 -1.588359433769629889e-02
5.000000000000000278e-02 -2.015347128538782367e-02
5.999999999999999778e-02 -2.447577499515098121e-02
7.000000000000000666e-02 -2.874224189709611785e-02
8.000000000000000167e-02 -3.277561295988348083e-02
8.999999999999999667e-02 -3.639582980680324681e-02
1.000000000000000056e-01 -3.929693103309050278e-02
1.100000000000000006e-01 -4.132656480793963499e-02
1.199999999999999956e-01 -4.203685999735011503e-02
1.300000000000000044e-01 -4.141290326984761044e-02
1.400000000000000133e-01 -3.896908490287695481e-02
1.499999999999999944e-01 -3.482369429188362370e-02
1.600000000000000033e-01 -2.867810963595506663e-02
1.700000000000000122e-01 -2.072125320474274557e-02
1.799999999999999933e-01 -1.097796579292615801e-02
1.900000000000000022e-01 2.664225041400223627e-04
2.000000000000000111e-01 1.265572546211697624e-02
2.099999999999999922e-01 2.574910561653919600e-02
2.200000000000000011e-01 3.898591534582195040e-02
2.300000000000000100e-01 5.168499298676532128e-02
2.399999999999999911e-01 6.332968242035130757e-02
2.500000000000000000e-01 7.291602972270820604e-02
2.600000000000000089e-01 8.017618334608489494e-02
2.700000000000000178e-01 8.407253387322254079e-02
2.800000000000000266e-01 8.448320034569019310e-02
2.899999999999999800e-01 8.070016680702628287e-02
2.999999999999999889e-01 7.270848006335690894e-02
3.099999999999999978e-01 6.039378658691368917e-02
3.200000000000000067e-01 4.386669015497286772e-02
3.300000000000000155e-01 2.369388766190875378e-02
3.400000000000000244e-01 2.119156227828955866e-04
3.500000000000000333e-01 -2.547843793457213110e-02
3.599999999999999867e-01 -5.263448748463796234e-02
3.699999999999999956e-01 -7.998596586636684547e-02
3.800000000000000044e-01 -1.062117874583667770e-01
3.900000000000000133e-01 -1.302193662295508814e-01
4.000000000000000222e-01 -1.503841532828681660e-01
4.100000000000000311e-01 -1.657653151624042254e-01
4.199999999999999845e-01 -1.749930137655294760e-01
4.299999999999999933e-01 -1.771732163853500519e-01
4.400000000000000022e-01 -1.717376335099297657e-01
4.500000000000000111e-01 -1.578029689581628148e-01
4.600000000000000200e-01 -1.359531230199069185e-01
4.700000000000000289e-01 -1.054121251571586981e-01
4.799999999999999822e-01 -6.794172513038704286e-02
4.899999999999999911e-01 -2.313284573062638835e-02
5.000000000000000000e-01 2.657081540255224611e-02
5.100000000000000089e-01 8.040282386024055761e-02
5.200000000000000178e-01 1.361094905898147245e-01
5.300000000000000266e-01 1.918951772689029001e-01
5.400000000000000355e-01 2.455868299572349922e-01
5.500000000000000444e-01 2.951067929844592985e-01
5.600000000000000533e-01 3.381566769844614462e-01
5.700000000000000622e-01 3.732636609975065189e-01
5.799999999999999600e-01 3.978221880243804631e-01
5.899999999999999689e-01 4.117636562433536485e-01
5.999999999999999778e-01 4.121298817065016662e-01
6.099999999999999867e-01 4.005281980231535366e-01
6.199999999999999956e-01 3.744861179188080924e-01
6.300000000000000044e-01 3.364523068297160524e-01
6.400000000000000133e-01 2.856737233192139236e-01
6.500000000000000222e-01 2.245674043505571371e-01
6.600000000000000311e-01 1.542589630538387935e-01
6.700000000000000400e-01 7.718523033674554168e-02
6.800000000000000488e-01 -4.247867134873267725e-03
6.900000000000000577e-01 -8.734263842622319585e-02
7.000000000000000666e-01 -1.694090070232100453e-01
7.099999999999999645e-01 -2.471567712433741515e-01
7.199999999999999734e-01 -3.187796997820004363e-01
7.299999999999999822e-01 -3.801127783815023142e-01
7.399999999999999911e-01 -4.308404505612739022e-01
7.500000000000000000e-01 -4.671943129633373548e-01
7.600000000000000089e-01 -4.894937304406382084e-01
7.700000000000000178e-01 -4.955626090147097207e-01
7.800000000000000266e-01 -4.859815907100473731e-01
7.900000000000000355e-01 -4.607288176164656690e-01
8.000000000000000444e-01 -4.205336449398266452e-01
8.100000000000000533e-01 -3.674641344918171959e-01
8.200000000000000622e-01 -3.025452003126847256e-01
8.300000000000000711e-01 -2.292610078105858928e-01
8.399999999999999689e-01 -1.492901881005959386e-01
8.499999999999999778e-01 -6.639157923304825348e-02
8.599999999999999867e-01 1.664437033414962325e-02
8.699999999999999956e-01 9.683902049213029273e-02
8.800000000000000044e-01 1.708108893920901594e-01
8.900000000000000133e-01 2.363568446313726590e-01
9.000000000000000222e-01 2.906939287226095181e-01
9.100000000000000311e-01 3.320278929375863330e-01
9.200000000000000400e-01 3.592298659433613706e-01
9.300000000000000488e-01 3.706875005815695734e-01
9.400000000000000577e-01 3.674758844725226070e-01
9.500000000000000666e-01 3.481802915541553634e-01
9.599999999999999645e-01 3.159839369286190913e-01
9.699999999999999734e-01 2.699531444654207357e-01
9.799999999999999822e-01 2.143701748995680556e-01
9.899999999999999911e-01 1.500966971944162620e-01
1.000000000000000000e+00 8.083456287190884937e-02
1.010000000000000009e+00 8.987982361315968727e-03
1.020000000000000018e+00 -6.224510914403025286e-02
1.030000000000000027e+00 -1.300795945143054799e-01
1.040000000000000036e+00 -1.915516020840838662e-01
1.050000000000000044e+00 -2.447224550515899877e-01
1.060000000000000053e+00 -2.866221072843775364e-01
1.070000000000000062e+00 -3.171152588726708355e-01
1.080000000000000071e+00 -3.331586330638093285e-01
1.090000000000000080e+00 -3.366425342338751348e-01
1.100000000000000089e+00 -3.252864513952989922e-01
1.110000000000000098e+00 -3.019807581021723419e-01
1.120000000000000107e+00 -2.663904508093060119e-01
1.130000000000000115e+00 -2.213473872105876095e-01
1.140000000000000124e+00 -1.683990938088155975e-01
1.150000000000000133e+00 -1.103075462928191919e-01
1.159999999999999920e+00 -4.964731101229982735e-02
1.169999999999999929e+00 1.071033445828574633e-02
1.179999999999999938e+00 6.831149077677649284e-02
1.189999999999999947e+00 1.199408269151673312e-01
1.199999999999999956e+00 1.643987813218156790e-01
1.209999999999999964e+00 1.979885955315274781e-01
1.219999999999999973e+00 2.211734624319137976e-01
1.229999999999999982e+00 2.310887201135556068e-01
1.239999999999999991e+00 2.288480175848568166e-01
1.250000000000000000e+00 2.133736419324863964e-01
1.260000000000000009e+00 1.860630699170803259e-01
1.270000000000000018e+00 1.477735794320413631e-01
1.280000000000000027e+00 1.001169405919267036e-01
1.290000000000000036e+00 4.541301770284081329e-02
1.300000000000000044e+00 -1.436746632887547781e-02
1.310000000000000053e+00 -7.637685410858117974e-02
1.320000000000000062e+00 -1.380213402740363693e-01
1.330000000000000071e+00 -1.969934439371220092e-01
1.340000000000000080e+00 -2.500790009445469919e-01
1.350000000000000089e+00 -2.960181949941606550e-01
1.360000000000000098e+00 -3.319170472130074656e-01
1.370000000000000107e+00 -3.571702251688397278e-01
1.380000000000000115e+00 -3.701785157735387188e-01
1.390000000000000124e+00 -3.707049863066523288e-01
1.400000000000000133e+00 -3.589561511757971557e-01
1.409999999999999920e+00 -3.349631614643065469e-01
1.419999999999999929e+00 -3.006773653814818759e-01
1.429999999999999938e+00 -2.565143767437451094e-01
1.439999999999999947e+00 -2.055611272562596903e-01
1.449999999999999956e+00 -1.489041189796498355e-01
1.459999999999999964e+00 -8.974999462454644195e-02
1.469999999999999973e+00 -3.024371824193486727e-02
1.479999999999999982e+00 2.715548532768939649e-02
1.489999999999999991e+00 7.992245337995740329e-02
1.500000000000000000e+00 1.261370006278033085e-01
1.510000000000000009e+00 1.639222315424847809e-01
1.520000000000000018e+00 1.916478440211877576e-01
1.530000000000000027e+00 2.088639086301411485e-01
1.540000000000000036e+00 2.141009163097653267e-01
1.550000000000000044e+00 2.086577919032397976e-01
1.560000000000000053e+00 1.912876716039755565e-01
1.570000000000000062e+00 1.646932735695378069e-01
1.580000000000000071e+00 1.284982528086553166e-01
1.590000000000000080e+00 8.571067906799410829e-02
1.600000000000000089e+00 3.735573387203248996e-02
1.610000000000000098e+00 -1.398607643080330455e-02
1.620000000000000107e+00 -6.639988893382157975e-02
1.630000000000000115e+00 -1.176206175569900342e-01
1.640000000000000124e+00 -1.657653546662485600e-01
1.650000000000000133e+00 -2.087081382121548090e-01
1.660000000000000142e+00 -2.454517593595941238e-01
1.669999999999999929e+00 -2.738881167869395838e-01
1.679999999999999938e+00 -2.944635139427222992e-01
1.689999999999999947e+00 -3.051129965113474340e-01
1.699999999999999956e+00 -3.075621084220113710e-01
1.709999999999999964e+00 -3.008288931367519847e-01
1.719999999999999973e+00 -2.868197479952218631e-01
1.729999999999999982e+00 -2.659713137857163123e-01
1.739999999999999991e+00 -2.401509516305395942e-01
1.750000000000000000e+00 -2.108125720012585247e-01
1.760000000000000009e+00 -1.798113055898285795e-01
1.770000000000000018e+00 -1.488996771255302887e-01
1.780000000000000027e+00 -1.200366666391970566e-01
1.790000000000000036e+00 -9.447636806747154725e-02
1.800000000000000044e+00 -7.438358086546602299e-02
1.810000000000000053e+00 -5.996645476731517210e-02
1.820000000000000062e+00 -5.328017805644953697e-02
1.830000000000000071e+00 -5.365679099381660128e-02
1.840000000000000080e+00 -6.221932627575459812e-02
1.850000000000000089e+00 -7.800955253400168599e-02
1.860000000000000098e+00 -1.008987836821257367e-01
1.870000000000000107e+00 -1.297668264466169397e-01
1.880000000000000115e+00 -1.634345201125565472e-01
1.890000000000000124e+00 -2.006009750638697020e-01
1.900000000000000133e+00 -2.395765079868551473e-01
1.910000000000000142e+00 -2.787622515850791127e-01
1.919999999999999929e+00 -3.166769484677411373e-01
1.929999999999999938e+00 -3.512921682084782504e-01
1.939999999999999947e+00 -3.818534916495710529e-01
1.949999999999999956e+00 -4.063827076708925179e-01
1.959999999999999964e+00 -4.246709730037219188e-01
1.969999999999999973e+00 -4.354463274727930489e-01
1.979999999999999982e+00 -4.387944668092625955e-01
1.989999999999999991e+00 -4.345261935985077484e-01
2.000000000000000000e+00 -4.228979163994281976e-01
2.010000000000000231e+00 -4.048068028910908334e-01
2.020000000000000018e+00 -3.806790217248118835e-01
2.030000000000000249e+00 -3.521569236453621077e-01
2.040000000000000036e+00 -3.199334352807332027e-01
2.049999999999999822e+00 -2.858070950385705467e-01
2.060000000000000053e+00 -2.508979679224723203e-01
2.069999999999999840e+00 -2.165886288005216542e-01
2.080000000000000071e+00 -1.841936481068207898e-01
2.089999999999999858e+00 -1.545928859245634390e-01
2.100000000000000089e+00 -1.287668450744376136e-01
2.109999999999999876e+00 -1.072293900826157692e-01
2.120000000000000107e+00 -9.021889995753745728e-02
2.129999999999999893e+00 -7.795771691604605480e-02
2.140000000000000124e+00 -6.983446196440426523e-02
2.149999999999999911e+00 -6.575733283347608149e-02
2.160000000000000142e+00 -6.448192948580262762e-02
2.169999999999999929e+00 -6.549409314465327869e-02
2.180000000000000160e+00 -6.738828620732276176e-02
2.189999999999999947e+00 -6.909998651297530325e-02
2.200000000000000178e+00 -6.949689273075179696e-02
2.209999999999999964e+00 -6.732978212746380808e-02
2.220000000000000195e+00 -6.171092890771006506e-02
2.229999999999999982e+00 -5.175123097131091587e-02
2.240000000000000213e+00 -3.674710854760737666e-02
2.250000000000000000e+00 -1.658374351032764621e-02
2.260000000000000231e+00 9.256095259469458714e-03
2.270000000000000018e+00 3.996888276797023326e-02
2.280000000000000249e+00 7.577875414115434194e-02
2.290000000000000036e+00 1.151896639290323626e-01
2.300000000000000266e+00 1.578022554309237990e-01
2.310000000000000053e+00 2.019782880429668859e-01
2.319999999999999840e+00 2.465617987080801210e-01
2.330000000000000071e+00 2.900745761659556665e-01
2.339999999999999858e+00 3.310326928333492402e-01
2.350000000000000089e+00 3.680263094732923457e-01
2.359999999999999876e+00 3.998772286499176487e-01
2.370000000000000107e+00 4.251366251640186777e-01
2.379999999999999893e+00 4.434926984241509551e-01
2.390000000000000124e+00 4.534135840741790324e-01
2.399999999999999911e+00 4.557816553750648203e-01
2.410000000000000142e+00 4.490599158032041460e-01
2.419999999999999929e+00 4.350875925292400637e-01
2.430000000000000160e+00 4.132265775375258410e-01
2.439999999999999947e+00 3.853191600423322982e-01
2.450000000000000178e+00 3.518887082585698822e-01
2.459999999999999964e+00 3.146336889104187073e-01
2.470000000000000195e+00 2.748630268706204749e-01
2.479999999999999982e+00 2.342072033546082066e-01
2.490000000000000213e+00 1.941421884334346981e-01
2.500000000000000000e+00 1.563601037715209863e-01
2.510000000000000231e+00 1.218454857295024896e-01
2.520000000000000018e+00 9.245266757936043689e-02
2.530000000000000249e+00 6.823790364391475738e-02
2.540000000000000036e+00 5.096254802566427267e-02
2.550000000000000266e+00 3.993023550736256311e-02
2.560000000000000053e+00 3.608711697272352914e-02
2.569999999999999840e+00 3.852688304712564848e-02
2.580000000000000071e+00 4.711673170679899630e-02
2.589999999999999858e+00 6.084369536762663372e-02
2.600000000000000089e+00 7.868431568436015655e-02
2.609999999999999876e+00 9.949750125463791006e-02
2.620000000000000107e+00 1.218379296645577814e-01
2.629999999999999893e+00 1.443350299840307216e-01
2.640000000000000124e+00 1.657352385306529174e-01
2.649999999999999911e+00 1.843313888991955918e-01
2.660000000000000142e+00 1.995053899008275289e-01
2.669999999999999929e+00 2.096113244373883078e-01
2.680000000000000160e+00 2.145261865530402878e-01
2.689999999999999947e+00 2.132284840898734934e-01
2.700000000000000178e+00 2.058757455865120323e-01
2.709999999999999964e+00 1.923860762958531645e-01
2.720000000000000195e+00 1.731099096777473645e-01
2.729999999999999982e+00 1.488872508707597964e-01
2.740000000000000213e+00 1.202870521865796460e-01
2.750000000000000000e+00 8.874553841323740144e-02
2.760000000000000231e+00 5.516599229279096905e-02
2.770000000000000018e+00 2.104791289212509797e-02
2.780000000000000249e+00 -1.225268077154278122e-02
2.790000000000000036e+00 -4.362323033262420491e-02
2.800000000000000266e+00 -7.156678731104017255e-02
2.810000000000000053e+00 -9.534418189325069570e-02
2.819999999999999840e+00 -1.138541264724404478e-01
2.830000000000000071e+00 -1.265882673136875247e-01
2.839999999999999858e+00 -1.332529897475613900e-01
2.850000000000000089e+00 -1.334920052638154109e-01
2.859999999999999876e+00 -1.279591545028778421e-01
2.870000000000000107e+00 -1.164727732320237491e-01
2.879999999999999893e+00 -1.004674623970338021e-01
2.890000000000000124e+00 -8.005635937067490104e-02
2.899999999999999911e+00 -5.697115265737683759e-02
2.910000000000000142e+00 -3.195991204691438214e-02
2.919999999999999929e+00 -6.454069534533798079e-03
2.930000000000000160e+00 1.838896721701001671e-02
2.939999999999999947e+00 4.142685175078283932e-02
2.950000000000000178e+00 6.161602839077561650e-02
2.959999999999999964e+00 7.800205753258961094e-02
2.970000000000000195e+00 9.011874976359303402e-02
2.979999999999999982e+00 9.713720291540588192e-02
2.990000000000000213e+00 9.942438455721958057e-02
3.000000000000000000e+00 9.630109454956888027e-02
3.010000000000000231e+00 8.889225275992287956e-02
3.020000000000000018e+00 7.694585010357754551e-02
3.030000000000000249e+00 6.186930526749725989e-02
3.040000000000000036e+00 4.414086364348923652e-02
3.050000000000000266e+00 2.503792526666120954e-02
3.060000000000000053e+00 5.540402331677136971e-03
3.070000000000000284e+00 -1.317771652362871582e-02
3.080000000000000071e+00 -3.011375359917695116e-02
3.089999999999999858e+00 -4.412876515504748909e-02
3.100000000000000089e+00 -5.467037665398087609e-02
3.109999999999999876e+00 -6.058953324530749057e-02
3.120000000000000107e+00 -6.211393041099431966e-02
3.129999999999999893e+00 -5.811642484847186901e-02
3.140000000000000124e+00 -4.955006627869443930e-02
3.149999999999999911e+00 -3.587006822506318138e-02
3.160000000000000142e+00 -1.818307662481335324e-02
3.169999999999999929e+00 3.244551100051742965e-03
3.180000000000000160e+00 2.730678752547245625e-02
3.189999999999999947e+00 5.313711194706342150e-02
3.200000000000000178e+00 7.960880420114685441e-02
3.209999999999999964e+00 1.056777451158994602e-01
3.220000000000000195e+00 1.301242513925900679e-01
3.229999999999999982e+00 1.522100525306123164e-01
3.240000000000000213e+00 1.705594971195640575e-01
3.250000000000000000e+00 1.850900773881528349e-01
3.260000000000000231e+00 1.944443835259475339e-01
3.270000000000000018e+00 1.991061145549684053e-01
3.280000000000000249e+00 1.982956061660898217e-01
3.290000000000000036e+00 1.926559955147416070e-01
3.300000000000000266e+00 1.822140450784066057e-01
3.310000000000000053e+00 1.676929310266868645e-01
3.320000000000000284e+00 1.498124139303334545e-01
3.330000000000000071e+00 1.293863472634047551e-01
3.339999999999999858e+00 1.074948697683319188e-01
3.350000000000000089e+00 8.511389842692473895e-02
3.359999999999999876e+00 6.323002216375690765e-02
3.370000000000000107e+00 4.306011654487652829e-02
3.379999999999999893e+00 2.514463207181639667e-02
3.390000000000000124e+00 1.068674635806882850e-02
3.399999999999999911e+00 -1.656419060106629863e-04
3.410000000000000142e+00 -6.639689036380408069e-03
3.419999999999999929e+00 -8.818813452213091625e-03
3.430000000000000160e+00 -6.610158091632262201e-03
3.439999999999999947e+00 -2.587790438766199991e-04
3.450000000000000178e+00 9.648623893414212671e-03
3.459999999999999964e+00 2.269327538489796653e-02
3.470000000000000195e+00 3.784339457357359382e-02
3.479999999999999982e+00 5.442895367905632720e-02
3.490000000000000213e+00 7.136679946052618129e-02
3.500000000000000000e+00 8.765730790468576061e-02
3.510000000000000231e+00 1.025034284411541902e-01
3.520000000000000018e+00 1.148121203956021935e-01
3.530000000000000249e+00 1.240719130208219612e-01
3.540000000000000036e+00 1.294959623880810873e-01
3.550000000000000266e+00 1.307622471689154908e-01
3.560000000000000053e+00 1.276911742052669607e-01
3.570000000000000284e+00 1.201026441505448350e-01
3.580000000000000071e+00 1.085140031965340784e-01
3.589999999999999858e+00 9.291581414160851593e-02
3.600000000000000089e+00 7.437527824438708302e-02
3.609999999999999876e+00 5.315418096745618687e-02
3.620000000000000107e+00 3.050284754793983547e-02
3.629999999999999893e+00 7.150603959096377138e-03
3.640000000000000124e+00 -1.586899926183476042e-02
3.649999999999999911e+00 -3.757055880176028706e-02
3.660000000000000142e+00 -5.712154219922191412e-02
3.669999999999999929e+00 -7.369688729102912006e-02
3.680000000000000160e+00 -8.658585762975162803e-02
3.689999999999999947e+00 -9.548289600041029446e-02
3.700000000000000178e+00 -9.975596129566112469e-02
3.709999999999999964e+00 -9.980498881992926063e-02
3.720000000000000195e+00 -9.510606939682444971e-02
3.729999999999999982e+00 -8.668287879135498641e-02
3.740000000000000213e+00 -7.434867091412225570e-02
3.750000000000000000e+00 -5.934496599522048194e-02
3.760000000000000231e+00 -4.209053288209975430e-02
3.770000000000000018e+00 -2.368358988244780028e-02
3.780000000000000249e+00 -4.955823152002873655e-03
3.790000000000000036e+00 1.310457258581067437e-02
3.800000000000000266e+00 2.965629013290712462e-02
3.810000000000000053e+00 4.375652224538120055e-02
3.820000000000000284e+00 5.494595266496776070e-02
3.830000000000000071e+00 6.228442257983633767e-02
3.839999999999999858e+00 6.596287568473874208e-02
3.850000000000000089e+00 6.506639379858623895e-02
3.859999999999999876e+00 6.038964941434678269e-02
