# [DEFAULT]
# # input and output specifications
# dataformat = QA
# outputtype = gr
# 
# # PDF calculation setup
# mode = xray
# wavelength = 
# composition = Cl4.0Cr1.0Na1.0
# bgscale = 1.0
# rpoly = 0.9
# qmaxinst = 28
# qmin = 0.0
# qmax = 22
# rmin = 0.0
# rmax = 30.0
# rstep = 0.01
# 
# # End of config --------------------------------------------------------------
# 
# #### start data
# #S 1
# #L r(Å)  G(Å$^$)
# 
0.000000000000000000e+00 0.000000000000000000e+00
1.000000000000000021e-02 -2.570347647585336653e-03
2.000000000000000042e-02 -5.280784786744380753e-03
2.999999999999999889e-02 -8.289442190749738218e-03
4.000000000000000083e-02 -1.165247011287984767e-02
5.000000000000000278e-02 -1.543955030677623790e-02
5.999999999999999778e-02 -1.960126656819155891e-02
7.000000000000000666e-02 -2.405098727490368599e-02
8.000000000000000167e-02 -2.861205570156089353e-02
8.999999999999999667e-02 -3.306233172565035960e-02
1.000000000000000056e-01 -3.707137820442965581e-02
1.100000000000000006e-01 -4.039672665551142378e-02
1.199999999999999956e-01 -4.253314625218412165e-02
1.300000000000000044e-01 -4.336394910631426181e-02
1.400000000000000133e-01 -4.230759021640571188e-02
1.499999999999999944e-01 -3.940329125600822158e-02
1.600000000000000033e-01 -3.424640650768018268e-02
1.700000000000000122e-01 -2.697268728457378334e-02
1.799999999999999933e-01 -1.753527446985804483e-02
1.900000000000000022e-01 -6.188553208139760051e-03
2.000000000000000111e-01 6.715768062589911984e-03
2.099999999999999922e-01 2.074427159730045378e-02
2.200000000000000011e-01 3.526624303152585405e-02
2.300000000000000100e-01 4.957546828982575815e-02
2.399999999999999911e-01 6.303348805375579011e-02
2.500000000000000000e-01 7.456379868935510136e-02
2.600000000000000089e-01 8.376953524194213907e-02
2.700000000000000178e-01 8.948919513353421895e-02
2.800000000000000266e-01 9.149809742506352650e-02
2.899999999999999800e-01 8.895772569636092864e-02
2.999999999999999889e-01 8.177282747986487632e-02
3.099999999999999978e-01 6.975002249512708696e-02
3.200000000000000067e-01 5.294054668431806554e-02
3.300000000000000155e-01 3.192484571316126646e-02
3.400000000000000244e-01 7.008747862619867097e-03
3.500000000000000333e-01 -2.059188933716038505e-02
3.599999999999999867e-01 -5.011590538820038382e-02
3.699999999999999956e-01 -8.011121979872595777e-02
3.800000000000000044e-01 -1.091497120128434861e-01
3.900000000000000133e-01 -1.359521628397316884e-01
4.000000000000000222e-01 -1.587066295803916671e-01
4.100000000000000311e-01 -1.763005935181022055e-01
4.199999999999999845e-01 -1.871658462260638589e-01
4.299999999999999933e-01 -1.902423095635884798e-01
4.400000000000000022e-01 -1.848390259504019972e-01
4.500000000000000111e-01 -1.699080522873406829e-01
4.600000000000000200e-01 -1.460562024745910847e-01
4.700000000000000289e-01 -1.123565622604081188e-01
4.799999999999999822e-01 -7.076759501934583307e-02
4.899999999999999911e-01 -2.077969315370659445e-02
5.000000000000000000e-01 3.484479698208892140e-02
5.100000000000000089e-01 9.526247356254641252e-02
5.200000000000000178e-01 1.579011232260024156e-01
5.300000000000000266e-01 2.207147080040174070e-01
5.400000000000000355e-01 2.811996732755383532e-01
5.500000000000000444e-01 3.369550836850849218e-01
5.600000000000000533e-01 3.853096159312260904e-01
5.700000000000000622e-01 4.245308968685375106e-01
5.799999999999999600e-01 4.515665362678787931e-01
5.899999999999999689e-01 4.662906611032338611e-01
5.999999999999999778e-01 4.652104324261697177e-01
6.099999999999999867e-01 4.501431998619718211e-01
6.199999999999999956e-01 4.181290435353146595e-01
6.300000000000000044e-01 3.719738040487736153e-01
6.400000000000000133e-01 3.107097487963110805e-01
6.500000000000000222e-01 2.371129991042952578e-01
6.600000000000000311e-01 1.524269535693930366e-01
6.700000000000000400e-01 5.945612397732877308e-02
6.800000000000000488e-01 -3.901229899019809100e-02
6.900000000000000577e-01 -1.398613591746831475e-01
7.000000000000000666e-01 -2.399050052842744973e-01
7.099999999999999645e-01 -3.353151088102137578e-01
7.199999999999999734e-01 -4.238738308354147444e-01
7.299999999999999822e-01 -5.006896903653327291e-01
7.399999999999999911e-01 -5.652514945224761389e-01
7.500000000000000000e-01 -6.130535321640008251e-01
7.600000000000000089e-01 -6.443282968340452443e-01
7.700000000000000178e-01 -6.563720361290431571e-01
7.800000000000000266e-01 -6.497116348068426861e-01
7.900000000000000355e-01 -6.241564951368216985e-01
8.000000000000000444e-01 -5.803772294848725810e-01
8.100000000000000533e-01 -5.206866283093344316e-01
8.200000000000000622e-01 -4.460533123821120438e-01
8.300000000000000711e-01 -3.605672739670802152e-01
8.399999999999999689e-01 -2.659064588942736673e-01
8.499999999999999778e-01 -1.666241103954368974e-01
8.599999999999999867e-01 -6.571787239257362301e-02
8.699999999999999956e-01 3.310764592852732946e-02
8.800000000000000044e-01 1.260211992299043460e-01
8.900000000000000133e-01 2.102462237914664300e-01
9.000000000000000222e-01 2.824797393025378911e-01
9.100000000000000311e-01 3.404398047860346388e-01
9.200000000000000400e-01 3.826210333256862550e-01
9.300000000000000488e-01 4.069487291974352439e-01
9.400000000000000577e-01 4.144281780677350757e-01
9.500000000000000666e-01 4.031770353583723487e-01
9.599999999999999645e-01 3.766912774587829471e-01
9.699999999999999734e-01 3.335775665645411836e-01
9.799999999999999822e-01 2.787100808266999019e-01
9.899999999999999911e-01 2.127803860413985393e-01
1.000000000000000000e+00 1.400476832978392039e-01
1.010000000000000009e+00 6.308752186698723952e-02
1.020000000000000018e+00 -1.440300210540168546e-02
1.030000000000000027e+00 -8.925188549365656310e-02
1.040000000000000036e+00 -1.580279405628952638e-01
1.050000000000000044e+00 -2.183692210284208235e-01
1.060000000000000053e+00 -2.668276879857759409e-01
1.070000000000000062e+00 -3.029903020354269838e-01
1.080000000000000071e+00 -3.232904407084029041e-01
1.090000000000000080e+00 -3.295978721820323476e-01
1.100000000000000089e+00 -3.191403845467356559e-01
1.110000000000000098e+00 -2.949818237352074823e-01
1.120000000000000107e+00 -2.565159067796542458e-01
1.130000000000000115e+00 -2.067992313063438947e-01
1.140000000000000124e+00 -1.473981166850160673e-01
1.150000000000000133e+00 -8.132050206513276314e-02
1.159999999999999920e+00 -1.140517723890353136e-02
1.169999999999999929e+00 5.920341441879875544e-02
1.179999999999999938e+00 1.276581072351155033e-01
1.189999999999999947e+00 1.904123080409226842e-01
1.199999999999999956e+00 2.458997646660124603e-01
1.209999999999999964e+00 2.899968685919190325e-01
1.219999999999999973e+00 3.229451136618998741e-01
1.229999999999999982e+00 3.414419607409642787e-01
1.239999999999999991e+00 3.464985294142979289e-01
1.250000000000000000e+00 3.367264352989570164e-01
1.260000000000000009e+00 3.134835917080776024e-01
1.270000000000000018e+00 2.775379618303721596e-01
1.280000000000000027e+00 2.304920816394931959e-01
1.290000000000000036e+00 1.748196966027641408e-01
1.300000000000000044e+00 1.125082537148276440e-01
1.310000000000000053e+00 4.675220681948758644e-02
1.320000000000000062e+00 -1.979033555919388135e-02
1.330000000000000071e+00 -8.438643756853150824e-02
1.340000000000000080e+00 -1.436497819370522178e-01
1.350000000000000089e+00 -1.959554836226254926e-01
1.360000000000000098e+00 -2.381416490015156040e-01
1.370000000000000107e+00 -2.693352943700453861e-01
1.380000000000000115e+00 -2.876786868247129814e-01
1.390000000000000124e+00 -2.927296855278054277e-01
1.400000000000000133e+00 -2.845513834844543566e-01
1.409999999999999920e+00 -2.630039247397232272e-01
1.419999999999999929e+00 -2.300710168459851601e-01
1.429999999999999938e+00 -1.860208497500323854e-01
1.439999999999999947e+00 -1.341520763907586844e-01
1.449999999999999956e+00 -7.543791255937419560e-02
1.459999999999999964e+00 -1.340019160400186989e-02
1.469999999999999973e+00 4.979361027949153612e-02
1.479999999999999982e+00 1.114068908558040749e-01
1.489999999999999991e+00 1.687673947403121877e-01
1.500000000000000000e+00 2.197220376277513321e-01
1.510000000000000009e+00 2.622043923289437140e-01
1.520000000000000018e+00 2.943806746833999566e-01
1.530000000000000027e+00 3.156556100813295851e-01
1.540000000000000036e+00 3.243685278942863848e-01
1.550000000000000044e+00 3.217826122083978224e-01
1.560000000000000053e+00 3.064630702784286176e-01
1.570000000000000062e+00 2.812032400024921386e-01
1.580000000000000071e+00 2.454817548813204020e-01
1.590000000000000080e+00 2.024629435380320697e-01
1.600000000000000089e+00 1.531350186271125124e-01
1.610000000000000098e+00 1.002290716998312931e-01
1.620000000000000107e+00 4.572588779944414955e-02
1.630000000000000115e+00 -7.974011925718190938e-03
1.640000000000000124e+00 -5.886642196628254220e-02
1.650000000000000133e+00 -1.047031136141015339e-01
1.660000000000000142e+00 -1.443676945465444117e-01
1.669999999999999929e+00 -1.756369761237758509e-01
1.679999999999999938e+00 -1.988897427140899898e-01
1.689999999999999947e+00 -2.119503484776764646e-01
1.699999999999999956e+00 -2.165459800818049785e-01
1.709999999999999964e+00 -2.116237480863980003e-01
1.719999999999999973e+00 -1.991295950844194917e-01
1.729999999999999982e+00 -1.794920642946380152e-01
1.739999999999999991e+00 -1.546369848804983183e-01
1.750000000000000000e+00 -1.260657515506847792e-01
1.760000000000000009e+00 -9.570329313867030618e-02
1.770000000000000018e+00 -6.537689723905855399e-02
1.780000000000000027e+00 -3.712612914556751020e-02
1.790000000000000036e+00 -1.227003503249732980e-02
1.800000000000000044e+00 6.932870253382831041e-03
1.810000000000000053e+00 2.024835943792386087e-02
1.820000000000000062e+00 2.552546272915355227e-02
1.830000000000000071e+00 2.344296097854946248e-02
1.840000000000000080e+00 1.281280931759393171e-02
1.850000000000000089e+00 -5.385285112520246664e-03
1.860000000000000098e+00 -3.104259742390524934e-02
1.870000000000000107e+00 -6.301991871015229230e-02
1.880000000000000115e+00 -1.001188318558093593e-01
1.890000000000000124e+00 -1.410322936929425675e-01
1.900000000000000133e+00 -1.840282514232096656e-01
1.910000000000000142e+00 -2.275240698703565045e-01
1.919999999999999929e+00 -2.699895197190189666e-01
1.929999999999999938e+00 -3.094459343686827846e-01
1.939999999999999947e+00 -3.450996281995273862e-01
1.949999999999999956e+00 -3.750415708864899278e-01
1.959999999999999964e+00 -3.990584470940855555e-01
1.969999999999999973e+00 -4.159547071366738180e-01
1.979999999999999982e+00 -4.258474568422904727e-01
1.989999999999999991e+00 -4.286119962383187487e-01
2.000000000000000000e+00 -4.245697980995486454e-01
2.010000000000000231e+00 -4.146400621618014926e-01
2.020000000000000018e+00 -3.993409678680324704e-01
2.030000000000000249e+00 -3.802630252547191669e-01
2.040000000000000036e+00 -3.582012746389457436e-01
2.049999999999999822e+00 -3.348195108616408566e-01
2.060000000000000053e+00 -3.112929195586175979e-01
2.069999999999999840e+00 -2.888250761892743324e-01
2.080000000000000071e+00 -2.686718045567394464e-01
2.089999999999999858e+00 -2.515221808264735959e-01
2.100000000000000089e+00 -2.381887448587460543e-01
2.109999999999999876e+00 -2.289604808232863220e-01
2.120000000000000107e+00 -2.238562680936371230e-01
2.129999999999999893e+00 -2.228070176933828195e-01
2.140000000000000124e+00 -2.250199294382249915e-01
2.149999999999999911e+00 -2.300107432875165836e-01
2.160000000000000142e+00 -2.364959781334914357e-01
2.169999999999999929e+00 -2.434438030827053290e-01
2.180000000000000160e+00 -2.495837814831268486e-01
2.189999999999999947e+00 -2.533959189985849347e-01
2.200000000000000178e+00 -2.539098866500915652e-01
2.209999999999999964e+00 -2.496335448919587419e-01
2.220000000000000195e+00 -2.398267550425286776e-01
2.229999999999999982e+00 -2.236255554472503793e-01
2.240000000000000213e+00 -2.004631331586484710e-01
2.250000000000000000e+00 -1.705025043834320908e-01
2.260000000000000231e+00 -1.333856063947493342e-01
2.270000000000000018e+00 -9.036334068002743747e-02
2.280000000000000249e+00 -4.145107878100871834e-02
2.290000000000000036e+00 1.137631660286648853e-02
2.300000000000000266e+00 6.733270871719970740e-02
2.310000000000000053e+00 1.243957371484610969e-01
2.319999999999999840e+00 1.809353737268351026e-01
2.330000000000000071e+00 2.351780521447131844e-01
2.339999999999999858e+00 2.852325800459188931e-01
2.350000000000000089e+00 3.294289571163876440e-01
2.359999999999999876e+00 3.663957975021852609e-01
2.370000000000000107e+00 3.944242595997927703e-01
2.379999999999999893e+00 4.133142343209676439e-01
2.390000000000000124e+00 4.212724320646147880e-01
2.399999999999999911e+00 4.196088552145507133e-01
2.410000000000000142e+00 4.065621499601421163e-01
2.419999999999999929e+00 3.845915124277096142e-01
2.430000000000000160e+00 3.530892813298928679e-01
2.439999999999999947e+00 3.144585689937248185e-01
2.450000000000000178e+00 2.695214705056332427e-01
2.459999999999999964e+00 2.204735320160099155e-01
2.470000000000000195e+00 1.690483549227257409e-01
2.479999999999999982e+00 1.173571774721046401e-01
2.490000000000000213e+00 6.724709947795384779e-02
2.500000000000000000e+00 2.092748909038989052e-02
2.510000000000000231e+00 -2.046655764765900609e-02
2.520000000000000018e+00 -5.449024706794397543e-02
2.530000000000000249e+00 -8.124156886842810732e-02
2.540000000000000036e+00 -9.838855585420731853e-02
2.550000000000000266e+00 -1.069721802530734511e-01
2.560000000000000053e+00 -1.057348914350930563e-01
2.569999999999999840e+00 -9.591940288667534509e-02
2.580000000000000071e+00 -7.767752778560696458e-02
2.589999999999999858e+00 -5.232840415693838093e-02
2.600000000000000089e+00 -2.118680202909037705e-02
2.609999999999999876e+00 1.431550067152852213e-02
2.620000000000000107e+00 5.229285077084458444e-02
2.629999999999999893e+00 9.105986244155200859e-02
2.640000000000000124e+00 1.289307559779481749e-01
2.649999999999999911e+00 1.638127185617465897e-01
2.660000000000000142e+00 1.947921277913109706e-01
2.669999999999999929e+00 2.198072299329848489e-01
2.680000000000000160e+00 2.385804726211195881e-01
2.689999999999999947e+00 2.497677526213901711e-01
2.700000000000000178e+00 2.534463123841022569e-01
2.709999999999999964e+00 2.494017767763248850e-01
2.720000000000000195e+00 2.379327888429987048e-01
2.729999999999999982e+00 2.199685153499212342e-01
2.740000000000000213e+00 1.960340377142807955e-01
2.750000000000000000e+00 1.678441062699461417e-01
2.760000000000000231e+00 1.362683342722027235e-01
2.770000000000000018e+00 1.031826701099013838e-01
2.780000000000000249e+00 6.996834809685224810e-02
2.790000000000000036e+00 3.807608954977340782e-02
2.800000000000000266e+00 9.115223253877721352e-03
2.810000000000000053e+00 -1.594878625274150433e-02
2.819999999999999840e+00 -3.588103661595366811e-02
2.830000000000000071e+00 -5.004010823805889185e-02
2.839999999999999858e+00 -5.805062017117244844e-02
2.850000000000000089e+00 -5.950146805190990179e-02
2.859999999999999876e+00 -5.504959250957647265e-02
2.870000000000000107e+00 -4.453295584166215570e-02
2.879999999999999893e+00 -2.946007820277248695e-02
2.890000000000000124e+00 -1.004604563262973850e-02
2.899999999999999911e+00 1.187799561579449756e-02
2.910000000000000142e+00 3.539392501668327945e-02
2.919999999999999929e+00 5.897525063629084630e-02
2.930000000000000160e+00 8.128517379397774689e-02
2.939999999999999947e+00 1.010924119392335452e-01
2.950000000000000178e+00 1.172369288086389377e-01
2.959999999999999964e+00 1.286812905458898093e-01
2.970000000000000195e+00 1.349618807463185965e-01
2.979999999999999982e+00 1.351802296175583229e-01
2.990000000000000213e+00 1.298447736188821366e-01
3.000000000000000000e+00 1.182421186511329603e-01
3.010000000000000231e+00 1.017441040971968635e-01
3.020000000000000018e+00 8.015590367978844832e-02
3.030000000000000249e+00 5.515338244199607942e-02
3.040000000000000036e+00 2.739424671684728696e-02
3.050000000000000266e+00 -1.602781653307691102e-03
3.060000000000000053e+00 -3.061788750955530755e-02
3.070000000000000284e+00 -5.824391076399335065e-02
3.080000000000000071e+00 -8.327646846822174542e-02
3.089999999999999858e+00 -1.043295976923159785e-01
3.100000000000000089e+00 -1.207792549709236912e-01
3.109999999999999876e+00 -1.312024251983535672e-01
3.120000000000000107e+00 -1.359458168539184331e-01
3.129999999999999893e+00 -1.335868478130598502e-01
3.140000000000000124e+00 -1.253597576265390312e-01
3.149999999999999911e+00 -1.105529988992663415e-01
3.160000000000000142e+00 -9.056068318886598134e-02
3.169999999999999929e+00 -6.567492993869145090e-02
3.180000000000000160e+00 -3.726128415028812091e-02
3.189999999999999947e+00 -6.363126974050902634e-03
3.200000000000000178e+00 2.565145833871994296e-02
3.209999999999999964e+00 5.749671819625240543e-02
3.220000000000000195e+00 8.770782774277371963e-02
3.229999999999999982e+00 1.153407576874796170e-01
3.240000000000000213e+00 1.387486920434759796e-01
3.250000000000000000e+00 1.577591686510045055e-01
3.260000000000000231e+00 1.707348897513715769e-01
3.270000000000000018e+00 1.781859174105050458e-01
3.280000000000000249e+00 1.791424107451233816e-01
3.290000000000000036e+00 1.743179209351677916e-01
3.300000000000000266e+00 1.636938802894934430e-01
3.310000000000000053e+00 1.480835735165128286e-01
3.320000000000000284e+00 1.283025008257631105e-01
3.330000000000000071e+00 1.052683861462828385e-01
3.339999999999999858e+00 8.025141707950449177e-02
3.350000000000000089e+00 5.435377972892677795e-02
3.359999999999999876e+00 2.877213314722047027e-02
3.370000000000000107e+00 4.886728071132193790e-03
3.379999999999999893e+00 -1.660337737900546493e-02
3.390000000000000124e+00 -3.431031762713375455e-02
3.399999999999999911e+00 -4.800004755385962885e-02
3.410000000000000142e+00 -5.675488893959473868e-02
3.419999999999999929e+00 -6.061993497343559634e-02
3.430000000000000160e+00 -5.944826636911568207e-02
3.439999999999999947e+00 -5.347633584833550585e-02
3.450000000000000178e+00 -4.334224120201836394e-02
3.459999999999999964e+00 -2.947883089717771160e-02
3.470000000000000195e+00 -1.305223029905113255e-02
3.479999999999999982e+00 5.228050094870659650e-03
3.490000000000000213e+00 2.411375360865837189e-02
3.500000000000000000e+00 4.252828826697382242e-02
3.510000000000000231e+00 5.953932235901118059e-02
3.520000000000000018e+00 7.395424671696006202e-02
3.530000000000000249e+00 8.517924470668462866e-02
3.540000000000000036e+00 9.235362785382258966e-02
3.550000000000000266e+00 9.511972982131194909e-02
3.560000000000000053e+00 9.328880149652286902e-02
3.570000000000000284e+00 8.669109408730542310e-02
3.580000000000000071e+00 7.590700299721771238e-02
3.589999999999999858e+00 6.099217129877840954e-02
3.600000000000000089e+00 4.312126384717993033e-02
3.609999999999999876e+00 2.269284798015553870e-02
3.620000000000000107e+00 1.063566901512001499e-03
3.629999999999999893e+00 -2.084325452126201128e-02
3.640000000000000124e+00 -4.190573267828688608e-02
3.649999999999999911e+00 -6.094722993931095401e-02
3.660000000000000142e+00 -7.705423428202134994e-02
3.669999999999999929e+00 -8.928153182017727063e-02
3.680000000000000160e+00 -9.683710689543469086e-02
3.689999999999999947e+00 -9.941731687009466856e-02
3.700000000000000178e+00 -9.631033640267196161e-02
3.709999999999999964e+00 -8.805791846165997305e-02
3.720000000000000195e+00 -7.407448055181173330e-02
3.729999999999999982e+00 -5.563428567818676229e-02
3.740000000000000213e+00 -3.256076643042531832e-02
3.750000000000000000e+00 -6.369504047565651729e-03
3.760000000000000231e+00 2.239082352052320507e-02
3.770000000000000018e+00 5.238538564606420173e-02
3.780000000000000249e+00 8.258022715750350240e-02
3.790000000000000036e+00 1.117701269845597645e-01
3.800000000000000266e+00 1.389259229689480679e-01
3.810000000000000053e+00 1.628854029359478595e-01
3.820000000000000284e+00 1.830983870046010153e-01
3.830000000000000071e+00 1.983872039613606142e-01
3.839999999999999858e+00 2.090064360532438159e-01
3.850000000000000089e+00 2.137844639452954054e-01
3.859999999999999876e+00 2.137191065579800153e-01
