# [DEFAULT]
# # input and output specifications
# dataformat = QA
# outputtype = gr
# 
# # PDF calculation setup
# mode = xray
# wavelength = 
# composition = Cl4.0Cr1.0Na1.0
# bgscale = 1.0
# rpoly = 0.9
# qmaxinst = 28
# qmin = 0.0
# qmax = 22
# rmin = 0.0
# rmax = 30.0
# rstep = 0.01
# 
# # End of config --------------------------------------------------------------
# 
# #### start data
# #S 1
# #L r(Å)  G(Å$^$)
# 
0.000000000000000000e+00 0.000000000000000000e+00
1.000000000000000021e-02 -2.700722189355045117e-03
2.000000000000000042e-02 -5.528798061500701799e-03
2.999999999999999889e-02 -8.627119308516183888e-03
4.000000000000000083e-02 -1.204451875150893726e-02
5.000000000000000278e-02 -1.583960620089256907e-02
5.999999999999999778e-02 -1.996065114478973862e-02
7.000000000000000666e-02 -2.431946148234857483e-02
8.000000000000000167e-02 -2.874199910687248033e-02
8.999999999999999667e-02 -3.301512812978278644e-02
1.000000000000000056e-01 -3.681672377970989646e-02
1.100000000000000006e-01 -3.992003710833746249e-02
1.199999999999999956e-01 -4.183520614220433836e-02
1.300000000000000044e-01 -4.246089549563746707e-02
1.400000000000000133e-01 -4.123723914573818039e-02
1.499999999999999944e-01 -3.821340051380381353e-02
1.600000000000000033e-01 -3.300505134164025828e-02
1.700000000000000122e-01 -2.575295032262520101e-02
1.799999999999999933e-01 -1.642049910786860800e-02
1.900000000000000022e-01 -5.262292841284486530e-03
2.000000000000000111e-01 7.374778984751016210e-03
2.099999999999999922e-01 2.106301367411189326e-02
2.200000000000000011e-01 3.519075511288845270e-02
2.300000000000000100e-01 4.906611501952060084e-02
2.399999999999999911e-01 6.207673731813702356e-02
2.500000000000000000e-01 7.317265064207563452e-02
2.600000000000000089e-01 8.198039618522064143e-02
2.700000000000000178e-01 8.737335763459150306e-02
2.800000000000000266e-01 8.914428528280279873e-02
2.899999999999999800e-01 8.648564852375201228e-02
2.999999999999999889e-01 7.931491540568544329e-02
3.099999999999999978e-01 6.745299282409665531e-02
3.200000000000000067e-01 5.095922476472392049e-02
3.300000000000000155e-01 3.040393070140490900e-02
3.400000000000000244e-01 6.093912672493589401e-03
3.500000000000000333e-01 -2.078887996751151851e-02
3.599999999999999867e-01 -4.949513100871291010e-02
3.699999999999999956e-01 -7.861996532783975533e-02
3.800000000000000044e-01 -1.067689309267711578e-01
3.900000000000000133e-01 -1.327084148188161228e-01
4.000000000000000222e-01 -1.546776215455616665e-01
4.100000000000000311e-01 -1.716050552953435615e-01
4.199999999999999845e-01 -1.819729082953872867e-01
4.299999999999999933e-01 -1.847607746390905192e-01
4.400000000000000022e-01 -1.793062975984250351e-01
4.500000000000000111e-01 -1.646015932784460345e-01
4.600000000000000200e-01 -1.412442503793020776e-01
4.700000000000000289e-01 -1.083454360753935558e-01
4.799999999999999822e-01 -6.781105860013814102e-02
4.899999999999999911e-01 -1.915952794761814626e-02
5.000000000000000000e-01 3.492827736950149253e-02
5.100000000000000089e-01 9.362290647815323108e-02
5.200000000000000178e-01 1.544301104653419410e-01
5.300000000000000266e-01 2.153587921539298344e-01
5.400000000000000355e-01 2.739822175981088126e-01
5.500000000000000444e-01 3.279714713773886348e-01
5.600000000000000533e-01 3.747374490293702287e-01
5.700000000000000622e-01 4.126057775142446538e-01
5.799999999999999600e-01 4.386182710331084644e-01
5.899999999999999689e-01 4.526627962963330476e-01
5.999999999999999778e-01 4.513552429035905256e-01
6.099999999999999867e-01 4.364690322169464398e-01
6.199999999999999956e-01 4.051394914688032367e-01
6.300000000000000044e-01 3.600964249369916770e-01
6.400000000000000133e-01 3.004088894072944327e-01
6.500000000000000222e-01 2.287752664651387935e-01
6.600000000000000311e-01 1.464078347804581570e-01
6.700000000000000400e-01 5.603093044855500526e-02
6.800000000000000488e-01 -3.964961048554196954e-02
6.900000000000000577e-01 -1.376072820364709071e-01
7.000000000000000666e-01 -2.347541978233326221e-01
7.099999999999999645e-01 -3.273747528806935092e-01
7.199999999999999734e-01 -4.133244369992553624e-01
7.299999999999999822e-01 -4.878572638158131802e-01
7.399999999999999911e-01 -5.504859422242424083e-01
7.500000000000000000e-01 -5.968418695286517028e-01
7.600000000000000089e-01 -6.271574075435075724e-01
7.700000000000000178e-01 -6.388140558293109450e-01
7.800000000000000266e-01 -6.323280083790454587e-01
7.900000000000000355e-01 -6.075183274713750192e-01
8.000000000000000444e-01 -5.650391147396456315e-01
8.100000000000000533e-01 -5.071355217904620627e-01
8.200000000000000622e-01 -4.347492211545520568e-01
8.300000000000000711e-01 -3.518461104046174404e-01
8.399999999999999689e-01 -2.600539842765002829e-01
8.499999999999999778e-01 -1.637854729359719264e-01
8.599999999999999867e-01 -6.594548087086853083e-02
8.699999999999999956e-01 2.987757595211315564e-02
8.800000000000000044e-01 1.199731431812531834e-01
8.900000000000000133e-01 2.016533870956118413e-01
9.000000000000000222e-01 2.717212031684072548e-01
9.100000000000000311e-01 3.279692016548012012e-01
9.200000000000000400e-01 3.689422175321289687e-01
9.300000000000000488e-01 3.926348737024726865e-01
9.400000000000000577e-01 4.000229838456888509e-01
9.500000000000000666e-01 3.892886898025272879e-01
9.599999999999999645e-01 3.638176668772225009e-01
9.699999999999999734e-01 3.222665408566632861e-01
9.799999999999999822e-01 2.693528699029364426e-01
9.899999999999999911e-01 2.057501293630766559e-01
1.000000000000000000e+00 1.355792529359861887e-01
1.010000000000000009e+00 6.133404420111610023e-02
1.020000000000000018e+00 -1.341010539196202042e-02
1.030000000000000027e+00 -8.558603023228608664e-02
1.040000000000000036e+00 -1.518778420527595319e-01
1.050000000000000044e+00 -2.100056096086461432e-01
1.060000000000000053e+00 -2.566404982639599042e-01
1.070000000000000062e+00 -2.913897006576483539e-01
1.080000000000000071e+00 -3.108146369995996583e-01
1.090000000000000080e+00 -3.167297928875878466e-01
1.100000000000000089e+00 -3.064700076083022307e-01
1.110000000000000098e+00 -2.830030123636055328e-01
1.120000000000000107e+00 -2.457591924098974090e-01
1.130000000000000115e+00 -1.976995107991986744e-01
1.140000000000000124e+00 -1.403511894820776429e-01
1.150000000000000133e+00 -7.662917775842678636e-02
1.159999999999999920e+00 -9.282524379587493712e-03
1.169999999999999929e+00 5.864074021483647176e-02
1.179999999999999938e+00 1.243950293170311139e-01
1.189999999999999947e+00 1.845436802889739991e-01
1.199999999999999956e+00 2.375913729594359702e-01
1.209999999999999964e+00 2.795467739903595983e-01
1.219999999999999973e+00 3.106694211550773965e-01
1.229999999999999982e+00 3.277740904999426608e-01
1.239999999999999991e+00 3.318628071527368051e-01
1.250000000000000000e+00 3.216127734010778005e-01
1.260000000000000009e+00 2.983612572804559826e-01
1.270000000000000018e+00 2.628748298162228991e-01
1.280000000000000027e+00 2.167302801684525271e-01
1.290000000000000036e+00 1.623384410199927019e-01
1.300000000000000044e+00 1.016543672963303446e-01
1.310000000000000053e+00 3.777109008499372061e-02
1.320000000000000062e+00 -2.669986572431452820e-02
1.330000000000000071e+00 -8.913109867698489064e-02
1.340000000000000080e+00 -1.462077572072895404e-01
1.350000000000000089e+00 -1.963844385115124380e-01
1.360000000000000098e+00 -2.365818079452083889e-01
1.370000000000000107e+00 -2.659800713976444575e-01
1.380000000000000115e+00 -2.827854191430209663e-01
1.390000000000000124e+00 -2.865933541302501664e-01
1.400000000000000133e+00 -2.774887627934365386e-01
1.409999999999999920e+00 -2.553609902045265723e-01
1.419999999999999929e+00 -2.221646465840144968e-01
1.429999999999999938e+00 -1.781900987036695028e-01
1.439999999999999947e+00 -1.266630568674958768e-01
1.449999999999999956e+00 -6.856772006231723338e-02
1.459999999999999964e+00 -7.334257081185055482e-03
1.469999999999999973e+00 5.489283973799148619e-02
1.479999999999999982e+00 1.154520167019282006e-01
1.489999999999999991e+00 1.717195363931384722e-01
1.500000000000000000e+00 2.216019243115519566e-01
1.510000000000000009e+00 2.630826390385807012e-01
1.520000000000000018e+00 2.943776362634956678e-01
1.530000000000000027e+00 3.149211359144560851e-01
1.540000000000000036e+00 3.230972019390864758e-01
1.550000000000000044e+00 3.201647657764681298e-01
1.560000000000000053e+00 3.047306534218827134e-01
1.570000000000000062e+00 2.795510491666848285e-01
1.580000000000000071e+00 2.441320870533099097e-01
1.590000000000000080e+00 2.015879691494078807e-01
1.600000000000000089e+00 1.529059171148983154e-01
1.610000000000000098e+00 1.007723426889440693e-01
1.620000000000000107e+00 4.714384534443057106e-02
1.630000000000000115e+00 -5.617286003421539942e-03
1.640000000000000124e+00 -5.553949171042663058e-02
1.650000000000000133e+00 -1.004079566027612502e-01
1.660000000000000142e+00 -1.391324764292702909e-01
1.669999999999999929e+00 -1.695206883033033296e-01
1.679999999999999938e+00 -1.919602975295150449e-01
1.689999999999999947e+00 -2.043051284625585218e-01
1.699999999999999956e+00 -2.082731276083423511e-01
1.709999999999999964e+00 -2.028294767193737080e-01
1.719999999999999973e+00 -1.899050426225829813e-01
1.729999999999999982e+00 -1.699308443751278430e-01
1.739999999999999991e+00 -1.448174712468838776e-01
1.750000000000000000e+00 -1.160570170792245420e-01
1.760000000000000009e+00 -8.556179320952204959e-02
1.770000000000000018e+00 -5.514516027486985467e-02
1.780000000000000027e+00 -2.683820813825898988e-02
1.790000000000000036e+00 -1.948256475008102936e-03
1.800000000000000044e+00 1.726929216601020070e-02
1.810000000000000053e+00 3.058590703149278306e-02
1.820000000000000062e+00 3.584753561475976374e-02
1.830000000000000071e+00 3.373228175856175098e-02
1.840000000000000080e+00 2.304374911100697323e-02
1.850000000000000089e+00 4.756407101539218696e-03
1.860000000000000098e+00 -2.103091245137938409e-02
1.870000000000000107e+00 -5.318624070309259377e-02
1.880000000000000115e+00 -9.051652617526496913e-02
1.890000000000000124e+00 -1.317210929600110270e-01
1.900000000000000133e+00 -1.750630965749096490e-01
1.910000000000000142e+00 -2.189612669511296072e-01
1.919999999999999929e+00 -2.618686290118898419e-01
1.929999999999999938e+00 -3.017968504557650977e-01
1.939999999999999947e+00 -3.379274767770993337e-01
1.949999999999999956e+00 -3.683248235432222129e-01
1.959999999999999964e+00 -3.927482033024570218e-01
1.969999999999999973e+00 -4.099636704138425736e-01
1.979999999999999982e+00 -4.200570619256741023e-01
1.989999999999999991e+00 -4.228671498447876265e-01
2.000000000000000000e+00 -4.186784463851064286e-01
2.010000000000000231e+00 -4.083920157979574195e-01
2.020000000000000018e+00 -3.924833939835016827e-01
2.030000000000000249e+00 -3.725575422428388794e-01
2.040000000000000036e+00 -3.493653064436006428e-01
2.049999999999999822e+00 -3.246205213516435983e-01
2.060000000000000053e+00 -2.994726488087011695e-01
2.069999999999999840e+00 -2.751934168588093810e-01
2.080000000000000071e+00 -2.530557515150110293e-01
2.089999999999999858e+00 -2.338189310191944870e-01
2.100000000000000089e+00 -2.183521157092478127e-01
2.109999999999999876e+00 -2.070219630600628469e-01
2.120000000000000107e+00 -1.999211339594257897e-01
2.129999999999999893e+00 -1.970744715493286114e-01
2.140000000000000124e+00 -1.977483799883518190e-01
2.149999999999999911e+00 -2.015775886768935155e-01
2.160000000000000142e+00 -2.072893526615053605e-01
2.169999999999999929e+00 -2.140002600547310507e-01
2.180000000000000160e+00 -2.203927907861620017e-01
2.189999999999999947e+00 -2.250669671995154109e-01
2.200000000000000178e+00 -2.269920051397284477e-01
2.209999999999999964e+00 -2.247246753147397746e-01
2.220000000000000195e+00 -2.174621900657613127e-01
2.229999999999999982e+00 -2.043082824204171255e-01
2.240000000000000213e+00 -1.846280209131855587e-01
2.250000000000000000e+00 -1.584849390213269593e-01
2.260000000000000231e+00 -1.254350359850362473e-01
2.270000000000000018e+00 -8.659761972063383106e-02
2.280000000000000249e+00 -4.186566223560191785e-02
2.290000000000000036e+00 6.903457756752889515e-03
2.300000000000000266e+00 5.909135648076284386e-02
2.310000000000000053e+00 1.127529356508081976e-01
2.319999999999999840e+00 1.664294616907719959e-01
2.330000000000000071e+00 2.184029144413366375e-01
2.339999999999999858e+00 2.669030551999090339e-01
2.350000000000000089e+00 3.103092867346463057e-01
2.359999999999999876e+00 3.472804673707209910e-01
2.370000000000000107e+00 3.761581043555428105e-01
2.379999999999999893e+00 3.966645225145193909e-01
2.390000000000000124e+00 4.070525039582371662e-01
2.399999999999999911e+00 4.084581048637085932e-01
2.410000000000000142e+00 3.991436720064412969e-01
2.419999999999999929e+00 3.813485567894580597e-01
2.430000000000000160e+00 3.544049194570349504e-01
2.439999999999999947e+00 3.205263632067841262e-01
2.450000000000000178e+00 2.804015458843124309e-01
2.459999999999999964e+00 2.360614852232320593e-01
2.470000000000000195e+00 1.890896544631810450e-01
2.479999999999999982e+00 1.414390184607627332e-01
2.490000000000000213e+00 9.485155332900119252e-02
2.500000000000000000e+00 5.136749826918674683e-02
2.510000000000000231e+00 1.211219874979944239e-02
2.520000000000000018e+00 -2.065813726796645808e-02
2.530000000000000249e+00 -4.693992553303669851e-02
2.540000000000000036e+00 -6.457015873345671453e-02
2.550000000000000266e+00 -7.443029154572131101e-02
2.560000000000000053e+00 -7.533187985727513025e-02
2.569999999999999840e+00 -6.837071558804312665e-02
2.580000000000000071e+00 -5.365607740157674055e-02
2.589999999999999858e+00 -3.237513051980847600e-02
2.600000000000000089e+00 -5.721689540938715984e-03
2.609999999999999876e+00 2.499871251842524303e-02
2.620000000000000107e+00 5.804862514381999017e-02
2.629999999999999893e+00 9.187849906278133805e-02
2.640000000000000124e+00 1.249214071305765061e-01
2.649999999999999911e+00 1.552445817851647036e-01
2.660000000000000142e+00 1.819885908843605349e-01
2.669999999999999929e+00 2.032432074125100907e-01
2.680000000000000160e+00 2.187407371047538351e-01
2.689999999999999947e+00 2.272337066877530842e-01
2.700000000000000178e+00 2.287897594982221117e-01
2.709999999999999964e+00 2.232117139377320925e-01
2.720000000000000195e+00 2.107817196481623356e-01
2.729999999999999982e+00 1.923681096068428631e-01
2.740000000000000213e+00 1.684753220837471865e-01
2.750000000000000000e+00 1.407025378069627075e-01
2.760000000000000231e+00 1.098897774748377743e-01
2.770000000000000018e+00 7.778193215014393702e-02
2.780000000000000249e+00 4.570819844726636827e-02
2.790000000000000036e+00 1.501493012368904437e-02
2.800000000000000266e+00 -1.275774759547717782e-02
2.810000000000000053e+00 -3.670973650054896315e-02
2.819999999999999840e+00 -5.566266610064722620e-02
2.830000000000000071e+00 -6.901124242631773154e-02
2.839999999999999858e+00 -7.639889840761120154e-02
2.850000000000000089e+00 -7.742745856579148767e-02
2.859999999999999876e+00 -7.272779095820497419e-02
2.870000000000000107e+00 -6.212771846794669373e-02
2.879999999999999893e+00 -4.707655777989552121e-02
2.890000000000000124e+00 -2.775097543846397410e-02
2.899999999999999911e+00 -5.914635059106517975e-03
2.910000000000000142e+00 1.758294561082810598e-02
2.919999999999999929e+00 4.127148449131347319e-02
2.930000000000000160e+00 6.389043134094701815e-02
2.939999999999999947e+00 8.425520417208509638e-02
2.950000000000000178e+00 1.012588005802316227e-01
2.959999999999999964e+00 1.139044320074746180e-01
2.970000000000000195e+00 1.217345120275049736e-01
2.979999999999999982e+00 1.238851803658295447e-01
2.990000000000000213e+00 1.208148874828383068e-01
3.000000000000000000e+00 1.118327489682676840e-01
3.010000000000000231e+00 9.821676522738533033e-02
3.020000000000000018e+00 7.976153182365347538e-02
3.030000000000000249e+00 5.803879101041330146e-02
3.040000000000000036e+00 3.364767112376807617e-02
3.050000000000000266e+00 8.014121293442059632e-03
3.060000000000000053e+00 -1.772741817547705823e-02
3.070000000000000284e+00 -4.225787745877626622e-02
3.080000000000000071e+00 -6.444909446840858813e-02
3.089999999999999858e+00 -8.300710909648706393e-02
3.100000000000000089e+00 -9.734094306180128553e-02
3.109999999999999876e+00 -1.061295992960843704e-01
3.120000000000000107e+00 -1.096862840946777745e-01
3.129999999999999893e+00 -1.067004450136304211e-01
3.140000000000000124e+00 -9.831439168335122381e-02
3.149999999999999911e+00 -8.388611608228277450e-02
3.160000000000000142e+00 -6.471433432221478099e-02
3.169999999999999929e+00 -4.109350845255705514e-02
3.180000000000000160e+00 -1.430403435638804080e-02
3.189999999999999947e+00 1.466412537159377319e-02
3.200000000000000178e+00 4.451991819322965310e-02
3.209999999999999964e+00 7.405954315424596868e-02
3.220000000000000195e+00 1.018941571290595538e-01
3.229999999999999982e+00 1.271573323053689086e-01
3.240000000000000213e+00 1.482854384884833565e-01
3.250000000000000000e+00 1.651514143327408590e-01
3.260000000000000231e+00 1.762066641703693426e-01
3.270000000000000018e+00 1.819696792742203639e-01
3.280000000000000249e+00 1.815375004268731385e-01
3.290000000000000036e+00 1.756156372401458665e-01
3.300000000000000266e+00 1.642117489331872127e-01
3.310000000000000053e+00 1.481247942675693319e-01
3.320000000000000284e+00 1.281532337498994811e-01
3.330000000000000071e+00 1.051989483990244251e-01
3.339999999999999858e+00 8.048195871654627298e-02
3.350000000000000089e+00 5.508725604106279317e-02
3.359999999999999876e+00 3.014663698886677415e-02
3.370000000000000107e+00 7.019533854396949567e-03
3.379999999999999893e+00 -1.365310626573550817e-02
3.390000000000000124e+00 -3.051243457489573319e-02
3.399999999999999911e+00 -4.336021800975881080e-02
3.410000000000000142e+00 -5.130560962438076439e-02
3.419999999999999929e+00 -5.441146499608146697e-02
3.430000000000000160e+00 -5.254362346688534052e-02
3.439999999999999947e+00 -4.594358899413526764e-02
3.450000000000000178e+00 -3.524451721285516009e-02
3.459999999999999964e+00 -2.087510598327967093e-02
3.470000000000000195e+00 -3.983774367353899726e-03
3.479999999999999982e+00 1.473126546282765501e-02
3.490000000000000213e+00 3.404180420662961115e-02
3.500000000000000000e+00 5.288742384151427084e-02
3.510000000000000231e+00 7.034836309450295810e-02
3.520000000000000018e+00 8.524517599944085589e-02
3.530000000000000249e+00 9.698609895740174791e-02
3.540000000000000036e+00 1.047115097823032442e-01
3.550000000000000266e+00 1.080542639332686267e-01
3.560000000000000053e+00 1.068112315529279599e-01
3.570000000000000284e+00 1.007893428272963604e-01
3.580000000000000071e+00 9.054436341466295946e-02
3.589999999999999858e+00 7.609095845260112345e-02
3.600000000000000089e+00 5.858202889000282965e-02
3.609999999999999876e+00 3.835334699797438018e-02
3.620000000000000107e+00 1.675398931574110031e-02
3.629999999999999893e+00 -5.360590791036603554e-03
3.640000000000000124e+00 -2.686887834026856214e-02
3.649999999999999911e+00 -4.664385729088786625e-02
3.660000000000000142e+00 -6.377048955243062867e-02
3.669999999999999929e+00 -7.731851519982531340e-02
3.680000000000000160e+00 -8.649271982449867335e-02
3.689999999999999947e+00 -9.096331607937084562e-02
3.700000000000000178e+00 -9.000979795429508989e-02
3.709999999999999964e+00 -8.411242612901823068e-02
3.720000000000000195e+00 -7.266329461513348908e-02
3.729999999999999982e+00 -5.685836019198144131e-02
3.740000000000000213e+00 -3.647235134107250365e-02
3.750000000000000000e+00 -1.294946385765759732e-02
3.760000000000000231e+00 1.323371770371889813e-02
3.770000000000000018e+00 4.080033538494989842e-02
3.780000000000000249e+00 6.878767650681834323e-02
3.790000000000000036e+00 9.604225037919504604e-02
3.800000000000000266e+00 1.215776595651692077e-01
3.810000000000000053e+00 1.442827081007740930e-01
3.820000000000000284e+00 1.636016139764027155e-01
3.830000000000000071e+00 1.784079009644444769e-01
3.839999999999999858e+00 1.888955788842913985e-01
3.850000000000000089e+00 1.939390395975456871e-01
3.859999999999999876e+00 1.944378589780881850e-01
