# [DEFAULT]
# # input and output specifications
# dataformat = QA
# outputtype = gr
# 
# # PDF calculation setup
# mode = xray
# wavelength = 
# composition = Cl4.0Cr1.0Na1.0
# bgscale = 1.0
# rpoly = 0.9
# qmaxinst = 28
# qmin = 0.0
# qmax = 22
# rmin = 0.0
# rmax = 30.0
# rstep = 0.01
# 
# # End of config --------------------------------------------------------------
# 
# #### start data
# #S 1
# #L r(Å)  G(Å$^$)
# 
0.000000000000000000e+00 0.000000000000000000e+00
1.000000000000000021e-02 -2.984987326319757384e-03
2.000000000000000042e-02 -6.086701728397220929e-03
2.999999999999999889e-02 -9.434887505248745060e-03
4.000000000000000083e-02 -1.307116490432415866e-02
5.000000000000000278e-02 -1.704253755814160581e-02
5.999999999999999778e-02 -2.129194659849595675e-02
7.000000000000000666e-02 -2.572519556703024846e-02
8.000000000000000167e-02 -3.016374857556260863e-02
8.999999999999999667e-02 -3.439644164648700264e-02
1.000000000000000056e-01 -3.809734307766432515e-02
1.100000000000000006e-01 -4.104976242968647049e-02
1.199999999999999956e-01 -4.276166770881303925e-02
1.300000000000000044e-01 -4.314704487962667950e-02
1.400000000000000133e-01 -4.164902553554847286e-02
1.499999999999999944e-01 -3.833200716130700375e-02
1.600000000000000033e-01 -3.282100982146719109e-02
1.700000000000000122e-01 -2.526993274955809457e-02
1.799999999999999933e-01 -1.565431666487601334e-02
1.900000000000000022e-01 -4.240998463462536741e-03
2.000000000000000111e-01 8.613295977816558605e-03
2.099999999999999922e-01 2.246832929343047999e-02
2.200000000000000011e-01 3.670946661580050396e-02
2.300000000000000100e-01 5.063146560501911864e-02
2.399999999999999911e-01 6.362869990530513331e-02
2.500000000000000000e-01 7.463768569879174197e-02
2.600000000000000089e-01 8.329957693693898491e-02
2.700000000000000178e-01 8.848245554775523158e-02
2.800000000000000266e-01 8.999369535561203837e-02
2.899999999999999800e-01 8.703079567718421949e-02
2.999999999999999889e-01 7.952575191634717044e-02
3.099999999999999978e-01 6.731180772044934035e-02
3.200000000000000067e-01 5.046382736474374492e-02
3.300000000000000155e-01 2.956644107195556537e-02
3.400000000000000244e-01 4.944608147799629816e-03
3.500000000000000333e-01 -2.220985459826797098e-02
3.599999999999999867e-01 -5.112545207226516786e-02
3.699999999999999956e-01 -8.039650376571390311e-02
3.800000000000000044e-01 -1.086061155580460569e-01
3.900000000000000133e-01 -1.345268524088467921e-01
4.000000000000000222e-01 -1.563840646129235068e-01
4.100000000000000311e-01 -1.731144666726251724e-01
4.199999999999999845e-01 -1.831994824215625595e-01
4.299999999999999933e-01 -1.856285858143727208e-01
4.400000000000000022e-01 -1.797514197622631094e-01
4.500000000000000111e-01 -1.645730038074600665e-01
4.600000000000000200e-01 -1.407113758565214645e-01
4.700000000000000289e-01 -1.072964548132202683e-01
4.799999999999999822e-01 -6.625537755936525275e-02
4.899999999999999911e-01 -1.713468149385222877e-02
5.000000000000000000e-01 3.736959337465130260e-02
5.100000000000000089e-01 9.639552059658607064e-02
5.200000000000000178e-01 1.574382499089329868e-01
5.300000000000000266e-01 2.184795579405797439e-01
5.400000000000000355e-01 2.770837804720712727e-01
5.500000000000000444e-01 3.309090735068904165e-01
5.600000000000000533e-01 3.773574705461564816e-01
5.700000000000000622e-01 4.147612706484783973e-01
5.799999999999999600e-01 4.401541060902222635e-01
5.899999999999999689e-01 4.534504645287701918e-01
5.999999999999999778e-01 4.512620669686319697e-01
6.099999999999999867e-01 4.354022213857556833e-01
6.199999999999999956e-01 4.030157973233471358e-01
6.300000000000000044e-01 3.568728692831619753e-01
6.400000000000000133e-01 2.960695583858919400e-01
6.500000000000000222e-01 2.233404062069074547e-01
6.600000000000000311e-01 1.399333806419783832e-01
6.700000000000000400e-01 4.860902000429677405e-02
6.800000000000000488e-01 -4.789624385571238790e-02
6.900000000000000577e-01 -1.465151450954334522e-01
7.000000000000000666e-01 -2.441476920076755264e-01
7.099999999999999645e-01 -3.370297677156355309e-01
7.199999999999999734e-01 -4.230333477015487120e-01
7.299999999999999822e-01 -4.973558261299271810e-01
7.399999999999999911e-01 -5.595510660962444982e-01
7.500000000000000000e-01 -6.052138797350199440e-01
7.600000000000000089e-01 -6.346160960285788244e-01
7.700000000000000178e-01 -6.451343818549925002e-01
7.800000000000000266e-01 -6.373204576277200495e-01
7.900000000000000355e-01 -6.110169228042285905e-01
8.000000000000000444e-01 -5.669117163342228816e-01
8.100000000000000533e-01 -5.072914881924330821e-01
8.200000000000000622e-01 -4.331351322433683593e-01
8.300000000000000711e-01 -3.484528927835887635e-01
8.399999999999999689e-01 -2.549195662837250298e-01
8.499999999999999778e-01 -1.569800036228907458e-01
8.599999999999999867e-01 -5.759609780225203451e-02
8.699999999999999956e-01 3.962757864714462619e-02
8.800000000000000044e-01 1.309289775376526466e-01
8.900000000000000133e-01 2.136106911417130216e-01
9.000000000000000222e-01 2.844446891385803422e-01
9.100000000000000311e-01 3.412149097756727034e-01
9.200000000000000400e-01 3.824645285888228496e-01
9.300000000000000488e-01 4.061778394010377435e-01
9.400000000000000577e-01 4.133597243008068078e-01
9.500000000000000666e-01 4.021814802927149990e-01
9.599999999999999645e-01 3.760826488146676860e-01
9.699999999999999734e-01 3.337130284991581819e-01
9.799999999999999822e-01 2.798531770463504875e-01
9.899999999999999911e-01 2.151912960863419932e-01
1.000000000000000000e+00 1.438987853390859828e-01
1.010000000000000009e+00 6.850189115466225054e-02
1.020000000000000018e+00 -7.382646733747263122e-03
1.030000000000000027e+00 -8.065200506276078152e-02
1.040000000000000036e+00 -1.479525755003107124e-01
1.050000000000000044e+00 -2.069797817976562759e-01
1.060000000000000053e+00 -2.543657860631162726e-01
1.070000000000000062e+00 -2.897150446939639190e-01
1.080000000000000071e+00 -3.095458646749112974e-01
1.090000000000000080e+00 -3.156944340369870483e-01
1.100000000000000089e+00 -3.054576711187864668e-01
1.110000000000000098e+00 -2.818363298070721279e-01
1.120000000000000107e+00 -2.442445262421983065e-01
1.130000000000000115e+00 -1.956732324662456279e-01
1.140000000000000124e+00 -1.376575544754587155e-01
1.150000000000000133e+00 -7.313898989323190658e-02
1.159999999999999920e+00 -4.892310806227456732e-03
1.169999999999999929e+00 6.400890174761049434e-02
1.179999999999999938e+00 1.307855187074712100e-01
1.189999999999999947e+00 1.919719672849228009e-01
1.199999999999999956e+00 2.460432348648486089e-01
1.209999999999999964e+00 2.889707403929043794e-01
1.219999999999999973e+00 3.209960488231504705e-01
1.229999999999999982e+00 3.388940480797477672e-01
1.239999999999999991e+00 3.436562013414423133e-01
1.250000000000000000e+00 3.339275954736368734e-01
1.260000000000000009e+00 3.110363136397411576e-01
1.270000000000000018e+00 2.757328447953272255e-01
1.280000000000000027e+00 2.295820338715742204e-01
1.290000000000000036e+00 1.749992507820196663e-01
1.300000000000000044e+00 1.139230251582272896e-01
1.310000000000000053e+00 4.947218214900847566e-02
1.320000000000000062e+00 -1.576206273507564301e-02
1.330000000000000071e+00 -7.911080652570595673e-02
1.340000000000000080e+00 -1.372728874750258066e-01
1.350000000000000089e+00 -1.886604450574725089e-01
1.360000000000000098e+00 -2.301899457012630823e-01
1.370000000000000107e+00 -2.610072696530765235e-01
1.380000000000000115e+00 -2.792989154846466371e-01
1.390000000000000124e+00 -2.846304293843338606e-01
1.400000000000000133e+00 -2.770598215301243172e-01
1.409999999999999920e+00 -2.564457775356604463e-01
1.419999999999999929e+00 -2.247185046103603034e-01
1.429999999999999938e+00 -1.821316230819518545e-01
1.439999999999999947e+00 -1.318987565188626809e-01
1.449999999999999956e+00 -7.495668394660764955e-02
1.459999999999999964e+00 -1.473900099953303483e-02
1.469999999999999973e+00 4.665403930266379118e-02
1.479999999999999982e+00 1.065545808273920259e-01
1.489999999999999991e+00 1.623673657230858824e-01
1.500000000000000000e+00 2.119944502317190060e-01
1.510000000000000009e+00 2.534254409337768355e-01
1.520000000000000018e+00 2.848748096886907777e-01
1.530000000000000027e+00 3.057587558569916375e-01
1.540000000000000036e+00 3.144609103548132167e-01
1.550000000000000044e+00 3.122014527008764584e-01
1.560000000000000053e+00 2.975828338855988076e-01
1.570000000000000062e+00 2.733116044670244049e-01
1.580000000000000071e+00 2.388751395465558425e-01
1.590000000000000080e+00 1.973412770086455381e-01
1.600000000000000089e+00 1.496615216171722773e-01
1.610000000000000098e+00 9.848285826478220262e-02
1.620000000000000107e+00 4.572049778556976085e-02
1.630000000000000115e+00 -6.301198803188006597e-03
1.640000000000000124e+00 -5.564216733438613616e-02
1.650000000000000133e+00 -1.001288308923454495e-01
1.660000000000000142e+00 -1.386785514512335060e-01
1.669999999999999929e+00 -1.691458117667973271e-01
1.679999999999999938e+00 -1.918927347392153093e-01
1.689999999999999947e+00 -2.048238012424096199e-01
1.699999999999999956e+00 -2.096041678245079976e-01
1.709999999999999964e+00 -2.052240337188102892e-01
1.719999999999999973e+00 -1.935617755244060101e-01
1.729999999999999982e+00 -1.750370695356184558e-01
1.739999999999999991e+00 -1.515101103743040911e-01
1.750000000000000000e+00 -1.244330967049964987e-01
1.760000000000000009e+00 -9.566562246919224632e-02
1.770000000000000018e+00 -6.696927345495640171e-02
1.780000000000000027e+00 -4.031324087081761265e-02
1.790000000000000036e+00 -1.696279499229870827e-02
1.800000000000000044e+00 9.045552965198317211e-04
1.810000000000000053e+00 1.307451026564379788e-02
1.820000000000000062e+00 1.747924702808495434e-02
1.830000000000000071e+00 1.478617425232031657e-02
1.840000000000000080e+00 3.862515268330134546e-03
1.850000000000000089e+00 -1.433426879863210213e-02
1.860000000000000098e+00 -3.968411747205378981e-02
1.870000000000000107e+00 -7.107496460360281099e-02
1.880000000000000115e+00 -1.073397385927954695e-01
1.890000000000000124e+00 -1.472028924946843786e-01
1.900000000000000133e+00 -1.889923580590495977e-01
1.910000000000000142e+00 -2.311652099858660381e-01
1.919999999999999929e+00 -2.722572292443336539e-01
1.929999999999999938e+00 -3.103434724565812264e-01
1.939999999999999947e+00 -3.446806089701787146e-01
1.949999999999999956e+00 -3.734218146274256300e-01
1.959999999999999964e+00 -3.963833877755575386e-01
1.969999999999999973e+00 -4.124204715100670549e-01
1.979999999999999982e+00 -4.216669979401716506e-01
1.989999999999999991e+00 -4.240199777801419434e-01
2.000000000000000000e+00 -4.198106024070090703e-01
2.010000000000000231e+00 -4.099438040236443315e-01
2.020000000000000018e+00 -3.949421723404280549e-01
2.030000000000000249e+00 -3.763504674544628226e-01
2.040000000000000036e+00 -3.549606680260078972e-01
2.049999999999999822e+00 -3.323748351996191897e-01
2.060000000000000053e+00 -3.097487975793477566e-01
2.069999999999999840e+00 -2.882301268191163612e-01
2.080000000000000071e+00 -2.690386084429121083e-01
2.089999999999999858e+00 -2.528215776973244955e-01
2.100000000000000089e+00 -2.403538965775864900e-01
2.109999999999999876e+00 -2.318927955487294079e-01
2.120000000000000107e+00 -2.274341532961756118e-01
2.129999999999999893e+00 -2.268832777446524451e-01
2.140000000000000124e+00 -2.294488860265751495e-01
2.149999999999999911e+00 -2.346256125916972579e-01
2.160000000000000142e+00 -2.411572276860318997e-01
2.169999999999999929e+00 -2.479964423333048951e-01
2.180000000000000160e+00 -2.539154155968904591e-01
2.189999999999999947e+00 -2.573973670716411255e-01
2.200000000000000178e+00 -2.575101517346590208e-01
2.209999999999999964e+00 -2.527816941459724021e-01
2.220000000000000195e+00 -2.425033896098068298e-01
2.229999999999999982e+00 -2.258364046050805873e-01
2.240000000000000213e+00 -2.022401548182868047e-01
2.250000000000000000e+00 -1.718957397793486330e-01
2.260000000000000231e+00 -1.344676482864864409e-01
2.270000000000000018e+00 -9.120951481741268463e-02
2.280000000000000249e+00 -4.215615446100003105e-02
2.290000000000000036e+00 1.073132336687213952e-02
2.300000000000000266e+00 6.665496906958265355e-02
2.310000000000000053e+00 1.236142560515500616e-01
2.319999999999999840e+00 1.799811228901500026e-01
2.330000000000000071e+00 2.340026571739195482e-01
2.339999999999999858e+00 2.838000720288292866e-01
2.350000000000000089e+00 3.277212658953890245e-01
2.359999999999999876e+00 3.644095376135077502e-01
2.370000000000000107e+00 3.921706801075258708e-01
2.379999999999999893e+00 4.108137006138938285e-01
2.390000000000000124e+00 4.185561130932879403e-01
2.399999999999999911e+00 4.167068681400657448e-01
2.410000000000000142e+00 4.035101709246918800e-01
2.419999999999999929e+00 3.814150451154879051e-01
2.430000000000000160e+00 3.498098935464263870e-01
2.439999999999999947e+00 3.110844571014652615e-01
2.450000000000000178e+00 2.660486399329811680e-01
2.459999999999999964e+00 2.168837268826342701e-01
2.470000000000000195e+00 1.653094161152384167e-01
2.479999999999999982e+00 1.134230704971475323e-01
2.490000000000000213e+00 6.306427300589222129e-02
2.500000000000000000e+00 1.643064865355019916e-02
2.510000000000000231e+00 -2.533769242600393892e-02
2.520000000000000018e+00 -5.980222598239921111e-02
2.530000000000000249e+00 -8.704276208087190214e-02
2.540000000000000036e+00 -1.047210287926287064e-01
2.550000000000000266e+00 -1.138525645720109419e-01
2.560000000000000053e+00 -1.131566833119501542e-01
2.569999999999999840e+00 -1.038474882672234950e-01
2.580000000000000071e+00 -8.604325584388794468e-02
2.589999999999999858e+00 -6.102964869693516814e-02
2.600000000000000089e+00 -3.009069594965870995e-02
2.609999999999999876e+00 5.382360391578890936e-03
2.620000000000000107e+00 4.351670966698535647e-02
2.629999999999999893e+00 8.267538486812836540e-02
2.640000000000000124e+00 1.211550691910039668e-01
2.649999999999999911e+00 1.569167215208731592e-01
2.660000000000000142e+00 1.890006293676320670e-01
2.669999999999999929e+00 2.153750858564821569e-01
2.680000000000000160e+00 2.357125562159391730e-01
2.689999999999999947e+00 2.486613695601251339e-01
2.700000000000000178e+00 2.542484730454572239e-01
2.709999999999999964e+00 2.522200962306134220e-01
2.720000000000000195e+00 2.428205044417376945e-01
2.729999999999999982e+00 2.269244864679378082e-01
2.740000000000000213e+00 2.049921978186469707e-01
2.750000000000000000e+00 1.786922469092084020e-01
2.760000000000000231e+00 1.488120516255222181e-01
2.770000000000000018e+00 1.172102442417903706e-01
2.780000000000000249e+00 8.517529093767525761e-02
2.790000000000000036e+00 5.416831295753826714e-02
2.800000000000000266e+00 2.572849139615981592e-02
2.810000000000000053e+00 8.385117809077114424e-04
2.819999999999999840e+00 -1.929299478241165017e-02
2.830000000000000071e+00 -3.400554373962488830e-02
2.839999999999999858e+00 -4.290119470386181966e-02
2.850000000000000089e+00 -4.554767152992694745e-02
2.859999999999999876e+00 -4.253918250761194730e-02
2.870000000000000107e+00 -3.368514293656088565e-02
2.879999999999999893e+00 -2.041158314869787396e-02
2.890000000000000124e+00 -2.889332146319601065e-03
2.899999999999999911e+00 1.712656982406404044e-02
2.910000000000000142e+00 3.878233300701303815e-02
2.919999999999999929e+00 6.060487124696872785e-02
2.930000000000000160e+00 8.132211951510628922e-02
2.939999999999999947e+00 9.974024940069750600e-02
2.950000000000000178e+00 1.147395408224049507e-01
2.959999999999999964e+00 1.253105656667966583e-01
2.970000000000000195e+00 1.309896434200731319e-01
2.979999999999999982e+00 1.308992430080073155e-01
2.990000000000000213e+00 1.255046325892869852e-01
3.000000000000000000e+00 1.141035029044829285e-01
3.010000000000000231e+00 9.799463909424545316e-02
3.020000000000000018e+00 7.697136315128663697e-02
3.030000000000000249e+00 5.263374924211705608e-02
3.040000000000000036e+00 2.559761428727753974e-02
3.050000000000000266e+00 -2.680463957151186551e-03
3.060000000000000053e+00 -3.103480233314034539e-02
3.070000000000000284e+00 -5.811023452560118430e-02
3.080000000000000071e+00 -8.274364329576165689e-02
3.089999999999999858e+00 -1.035944903597741801e-01
3.100000000000000089e+00 -1.200473922255751863e-01
3.109999999999999876e+00 -1.307187454993457287e-01
3.120000000000000107e+00 -1.359227623710667077e-01
3.129999999999999893e+00 -1.342658908417828090e-01
3.140000000000000124e+00 -1.269192045093869292e-01
3.149999999999999911e+00 -1.131659612149320954e-01
3.160000000000000142e+00 -9.433499331888128836e-02
3.169999999999999929e+00 -7.067746090702668738e-02
3.180000000000000160e+00 -4.349590051379744610e-02
3.189999999999999947e+00 -1.377646906263519169e-02
3.200000000000000178e+00 1.717645542372760181e-02
3.209999999999999964e+00 4.812428075389413307e-02
3.220000000000000195e+00 7.767014081460772712e-02
3.229999999999999982e+00 1.048827054950351445e-01
3.240000000000000213e+00 1.281880140152990843e-01
3.250000000000000000e+00 1.473804341961712228e-01
3.260000000000000231e+00 1.608840738785410895e-01
3.270000000000000018e+00 1.691464496848387455e-01
3.280000000000000249e+00 1.712145143009940751e-01
3.290000000000000036e+00 1.677367977883785777e-01
3.300000000000000266e+00 1.586627732007645231e-01
3.310000000000000053e+00 1.447386327532175498e-01
3.320000000000000284e+00 1.267168787071352998e-01
3.330000000000000071e+00 1.054416115810828253e-01
3.339999999999999858e+00 8.211706142081313942e-02
3.350000000000000089e+00 5.775888710459600728e-02
3.359999999999999876e+00 3.352588022452548944e-02
3.370000000000000107e+00 1.069452097678713284e-02
3.379999999999999893e+00 -1.003061008287076811e-02
3.390000000000000124e+00 -2.735037072990071857e-02
3.399999999999999911e+00 -4.100390157552809972e-02
3.410000000000000142e+00 -5.011560467204915353e-02
3.419999999999999929e+00 -5.469522467618348482e-02
3.430000000000000160e+00 -5.458118117332101671e-02
3.439999999999999947e+00 -4.996790178248119996e-02
3.450000000000000178e+00 -4.143112167197526147e-02
3.459999999999999964e+00 -2.935055321007918813e-02
3.470000000000000195e+00 -1.480666965569257809e-02
3.479999999999999982e+00 1.563802714269737527e-03
3.490000000000000213e+00 1.858934402972227742e-02
3.500000000000000000e+00 3.528993299255600569e-02
3.510000000000000231e+00 5.078068552164389377e-02
3.520000000000000018e+00 6.396362444397354907e-02
3.530000000000000249e+00 7.427181145364611381e-02
3.540000000000000036e+00 8.090509567932849255e-02
3.550000000000000266e+00 8.352085288913264904e-02
3.560000000000000053e+00 8.193607825242164855e-02
3.570000000000000284e+00 7.598774497755390878e-02
3.580000000000000071e+00 6.620381241320501264e-02
3.589999999999999858e+00 5.263502659557699193e-02
3.600000000000000089e+00 3.636045237612049036e-02
3.609999999999999876e+00 1.775292118352538029e-02
3.620000000000000107e+00 -1.938184360860798622e-03
3.629999999999999893e+00 -2.185263636827504408e-02
3.640000000000000124e+00 -4.095500346161803917e-02
3.649999999999999911e+00 -5.815122813019019121e-02
3.660000000000000142e+00 -7.259613469192723045e-02
3.669999999999999929e+00 -8.341217180971013945e-02
3.680000000000000160e+00 -8.986476291570619224e-02
3.689999999999999947e+00 -9.167380651278078663e-02
3.700000000000000178e+00 -8.817752504974153693e-02
3.709999999999999964e+00 -7.988235789279929389e-02
3.720000000000000195e+00 -6.624222689237885264e-02
3.729999999999999982e+00 -4.844459695345529338e-02
3.740000000000000213e+00 -2.632205814227107227e-02
3.750000000000000000e+00 -1.285347388588183168e-03
3.760000000000000231e+00 2.615955314702788845e-02
3.770000000000000018e+00 5.477229171211510372e-02
3.780000000000000249e+00 8.359614933096845557e-02
3.790000000000000036e+00 1.115138749900367043e-01
3.800000000000000266e+00 1.375725148808766840e-01
3.810000000000000053e+00 1.606975757599605203e-01
3.820000000000000284e+00 1.803786257614677646e-01
3.830000000000000071e+00 1.955292543268722649e-01
3.839999999999999858e+00 2.063819499461663487e-01
3.850000000000000089e+00 2.118570129215290587e-01
3.859999999999999876e+00 2.128721424269706120e-01
