# [DEFAULT]
# # input and output specifications
# dataformat = QA
# outputtype = gr
# 
# # PDF calculation setup
# mode = xray
# wavelength = 
# composition = Cl4.0Cr1.0Na1.0
# bgscale = 1.0
# rpoly = 0.9
# qmaxinst = 28
# qmin = 0.0
# qmax = 22
# rmin = 0.0
# rmax = 30.0
# rstep = 0.01
# 
# # End of config --------------------------------------------------------------
# 
# #### start data
# #S 1
# #L r(Å)  G(Å$^$)
# 
0.000000000000000000e+00 0.000000000000000000e+00
1.000000000000000021e-02 -3.002269323430754519e-03
2.000000000000000042e-02 -6.115970528754839479e-03
2.999999999999999889e-02 -9.464565798868108254e-03
4.000000000000000083e-02 -1.308677307202702617e-02
5.000000000000000278e-02 -1.702529794580424222e-02
5.999999999999999778e-02 -2.122257214678345896e-02
7.000000000000000666e-02 -2.558439812143507158e-02
8.000000000000000167e-02 -2.993429282024829066e-02
8.999999999999999667e-02 -3.406569893911519376e-02
1.000000000000000056e-01 -3.765785740901817641e-02
1.100000000000000006e-01 -4.050129362541891875e-02
1.199999999999999956e-01 -4.211308124189629132e-02
1.300000000000000044e-01 -4.241364114516638084e-02
1.400000000000000133e-01 -4.085841832967653658e-02
1.499999999999999944e-01 -3.751552608629718510e-02
1.600000000000000033e-01 -3.202106322213854606e-02
1.700000000000000122e-01 -2.453055653663222327e-02
1.799999999999999933e-01 -1.502477886675473648e-02
1.900000000000000022e-01 -3.769987052438935823e-03
2.000000000000000111e-01 8.880351479888652991e-03
2.099999999999999922e-01 2.248975011410574501e-02
2.200000000000000011e-01 3.645490045418836589e-02
2.300000000000000100e-01 5.007947989403176842e-02
2.399999999999999911e-01 6.277331143797436341e-02
2.500000000000000000e-01 7.348971481540722550e-02
2.600000000000000089e-01 8.188403586456526051e-02
2.700000000000000178e-01 8.684705995823234492e-02
2.800000000000000266e-01 8.819769410427362455e-02
2.899999999999999800e-01 8.515477316285410825e-02
2.999999999999999889e-01 7.766024312857970624e-02
3.099999999999999978e-01 6.555907320473357280e-02
3.200000000000000067e-01 4.893480891711666364e-02
3.300000000000000155e-01 2.836821874386226405e-02
3.400000000000000244e-01 4.190180060663905269e-03
3.500000000000000333e-01 -2.242836913344449512e-02
3.599999999999999867e-01 -5.071671471586844393e-02
3.699999999999999956e-01 -7.930186126282538772e-02
3.800000000000000044e-01 -1.067827089330130180e-01
3.900000000000000133e-01 -1.319661289509303226e-01
4.000000000000000222e-01 -1.531093704262770361e-01
4.100000000000000311e-01 -1.691822386348587337e-01
4.199999999999999845e-01 -1.787038736030113761e-01
4.299999999999999933e-01 -1.806987822415891121e-01
4.400000000000000022e-01 -1.745452435165752436e-01
4.500000000000000111e-01 -1.592881097365238807e-01
4.600000000000000200e-01 -1.355506887081563971e-01
4.700000000000000289e-01 -1.025080579347252552e-01
4.799999999999999822e-01 -6.205965968450864734e-02
4.899999999999999911e-01 -1.379890441572210677e-02
5.000000000000000000e-01 3.963277122270777997e-02
5.100000000000000089e-01 9.735586199848869637e-02
5.200000000000000178e-01 1.569199257507335743e-01
5.300000000000000266e-01 2.163270776797467376e-01
5.400000000000000355e-01 2.731966229027547044e-01
5.500000000000000444e-01 3.252345749360994742e-01
5.600000000000000533e-01 3.699038177840073272e-01
5.700000000000000622e-01 4.055923875790711230e-01
5.799999999999999600e-01 4.294081310606143731e-01
5.899999999999999689e-01 4.413043936260079847e-01
5.999999999999999778e-01 4.379872358620666706e-01
6.099999999999999867e-01 4.212733531863570580e-01
6.199999999999999956e-01 3.884077117352628394e-01
6.300000000000000044e-01 3.421369954950656544e-01
6.400000000000000133e-01 2.816254708217741931e-01
6.500000000000000222e-01 2.095792895144678591e-01
6.600000000000000311e-01 1.272617031035832014e-01
6.700000000000000400e-01 3.740234980393897235e-02
6.800000000000000488e-01 -5.730218327959564484e-02
6.900000000000000577e-01 -1.538222461406182351e-01
7.000000000000000666e-01 -2.491394478127111900e-01
7.099999999999999645e-01 -3.395443937143110547e-01
7.199999999999999734e-01 -4.230051180287424661e-01
7.299999999999999822e-01 -4.948048855166642945e-01
7.399999999999999911e-01 -5.545784663736633702e-01
7.500000000000000000e-01 -5.980314686873147156e-01
7.600000000000000089e-01 -6.254950973052390006e-01
7.700000000000000178e-01 -6.344490288473024764e-01
7.800000000000000266e-01 -6.254942357883680470e-01
7.900000000000000355e-01 -5.985330153437902201e-01
8.000000000000000444e-01 -5.543004999126155408e-01
8.100000000000000533e-01 -4.950753402352349175e-01
8.200000000000000622e-01 -4.218823745324334351e-01
8.300000000000000711e-01 -3.386495199374108811e-01
8.399999999999999689e-01 -2.470876164702329181e-01
8.499999999999999778e-01 -1.515048028161454785e-01
8.599999999999999867e-01 -5.485449521582756033e-02
8.699999999999999956e-01 3.940190189812728394e-02
8.800000000000000044e-01 1.275756803011307006e-01
8.900000000000000133e-01 2.070960001583574683e-01
9.000000000000000222e-01 2.748460539684258186e-01
9.100000000000000311e-01 3.287310666186588071e-01
9.200000000000000400e-01 3.673972158780235420e-01
9.300000000000000488e-01 3.889579769009421373e-01
9.400000000000000577e-01 3.944674308581017086e-01
9.500000000000000666e-01 3.822431075627860664e-01
9.599999999999999645e-01 3.556857803602541668e-01
9.699999999999999734e-01 3.136084541325938613e-01
9.799999999999999822e-01 2.606741581352898796e-01
9.899999999999999911e-01 1.976700473400473945e-01
1.000000000000000000e+00 1.286470891024101837e-01
1.010000000000000009e+00 5.613272351798399840e-02
1.020000000000000018e+00 -1.637102568824714416e-02
1.030000000000000027e+00 -8.584384621739973853e-02
1.040000000000000036e+00 -1.490470438606838199e-01
1.050000000000000044e+00 -2.038047487423323700e-01
1.060000000000000053e+00 -2.468779730955603935e-01
1.070000000000000062e+00 -2.779947067215223777e-01
1.080000000000000071e+00 -2.938318875503939109e-01
1.090000000000000080e+00 -2.962976230663448840e-01
1.100000000000000089e+00 -2.828673281576007947e-01
1.110000000000000098e+00 -2.565572187061465614e-01
1.120000000000000107e+00 -2.169222496737040207e-01
1.130000000000000115e+00 -1.669459464646850799e-01
1.140000000000000124e+00 -1.082232248276893405e-01
1.150000000000000133e+00 -4.367808517460534251e-02
1.159999999999999920e+00 2.395051402382134334e-02
1.169999999999999929e+00 9.161477301106796256e-02
1.179999999999999938e+00 1.566540255072069732e-01
1.189999999999999947e+00 2.156460483213602508e-01
1.199999999999999956e+00 2.672293889921298904e-01
1.209999999999999964e+00 3.074531827916813786e-01
1.219999999999999973e+00 3.367159986871949284e-01
1.229999999999999982e+00 3.519172795987166591e-01
1.239999999999999991e+00 3.541638896398391356e-01
1.250000000000000000e+00 3.422334317983262708e-01
1.260000000000000009e+00 3.175416656881731026e-01
1.270000000000000018e+00 2.809278046657442962e-01
1.280000000000000027e+00 2.340295108640500221e-01
1.290000000000000036e+00 1.792706363046374374e-01
1.300000000000000044e+00 1.186524281650851720e-01
1.310000000000000053e+00 5.521036198904700348e-02
1.320000000000000062e+00 -8.418151976103550871e-03
1.330000000000000071e+00 -6.971647715269282952e-02
1.340000000000000080e+00 -1.253893374293442164e-01
1.350000000000000089e+00 -1.740121673720119444e-01
1.360000000000000098e+00 -2.125810574284469900e-01
1.370000000000000107e+00 -2.403837408638831996e-01
1.380000000000000115e+00 -2.557269222154631705e-01
1.390000000000000124e+00 -2.583055186389235924e-01
1.400000000000000133e+00 -2.482847007521003790e-01
1.409999999999999920e+00 -2.256511562796478798e-01
1.419999999999999929e+00 -1.923801003651613439e-01
1.429999999999999938e+00 -1.488581797547899599e-01
1.439999999999999947e+00 -9.825030470253051651e-02
1.449999999999999956e+00 -4.162767277828194334e-02
1.459999999999999964e+00 1.770435157157980444e-02
1.469999999999999973e+00 7.758315278610247723e-02
1.479999999999999982e+00 1.354741627911230928e-01
1.489999999999999991e+00 1.888143979214930435e-01
1.500000000000000000e+00 2.356339593333086346e-01
1.510000000000000009e+00 2.740227447763708413e-01
1.520000000000000018e+00 3.023227560770061495e-01
1.530000000000000027e+00 3.200709302363555775e-01
1.540000000000000036e+00 3.257878441601971820e-01
1.550000000000000044e+00 3.207808334884488244e-01
1.560000000000000053e+00 3.038069590295002786e-01
1.570000000000000062e+00 2.775881176289040075e-01
1.580000000000000071e+00 2.417610588930821924e-01
1.590000000000000080e+00 1.993484990877996410e-01
1.600000000000000089e+00 1.513861301022770001e-01
1.610000000000000098e+00 1.004550663326840565e-01
1.620000000000000107e+00 4.846395267670690343e-02
1.630000000000000115e+00 -2.341933825732727889e-03
1.640000000000000124e+00 -5.010818769019759894e-02
1.650000000000000133e+00 -9.275653431890309997e-02
1.660000000000000142e+00 -1.293311554892455639e-01
1.669999999999999929e+00 -1.578081294275704427e-01
1.679999999999999938e+00 -1.786636174698618684e-01
1.689999999999999947e+00 -1.899606194127982650e-01
1.699999999999999956e+00 -1.934244648211158879e-01
1.709999999999999964e+00 -1.882018098119625227e-01
1.719999999999999973e+00 -1.761891026183432518e-01
1.729999999999999982e+00 -1.579059077365429220e-01
1.739999999999999991e+00 -1.352041882108014348e-01
1.750000000000000000e+00 -1.095457679304345927e-01
1.760000000000000009e+00 -8.276078929185905209e-02
1.770000000000000018e+00 -5.652764551821638783e-02
1.780000000000000027e+00 -3.275864611272748944e-02
1.790000000000000036e+00 -1.257270579107180181e-02
1.800000000000000044e+00 1.952602063157482830e-03
1.810000000000000053e+00 1.075888538767046446e-02
1.820000000000000062e+00 1.193496311982448523e-02
1.830000000000000071e+00 6.267857983970101521e-03
1.840000000000000080e+00 -7.199435972383763475e-03
1.850000000000000089e+00 -2.742355712745957186e-02
1.860000000000000098e+00 -5.415321318445365240e-02
1.870000000000000107e+00 -8.621191134176477144e-02
1.880000000000000115e+00 -1.223982797548208851e-01
1.890000000000000124e+00 -1.613902984121808604e-01
1.900000000000000133e+00 -2.016008268962973526e-01
1.910000000000000142e+00 -2.414690724687902912e-01
1.919999999999999929e+00 -2.797184404936333135e-01
1.929999999999999938e+00 -3.144601891385380155e-01
1.939999999999999947e+00 -3.451822375846184676e-01
1.949999999999999956e+00 -3.701759057978137868e-01
1.959999999999999964e+00 -3.894618260110754293e-01
1.969999999999999973e+00 -4.020995993782414679e-01
1.979999999999999982e+00 -4.084092685448328930e-01
1.989999999999999991e+00 -4.084767945269814349e-01
2.000000000000000000e+00 -4.028182922319520909e-01
2.010000000000000231e+00 -3.924301394354991479e-01
2.020000000000000018e+00 -3.780282552025528431e-01
2.030000000000000249e+00 -3.610930664551744163e-01
2.040000000000000036e+00 -3.426105038119853785e-01
2.049999999999999822e+00 -3.239610547435215482e-01
2.060000000000000053e+00 -3.064198848100071482e-01
2.069999999999999840e+00 -2.908444047142327293e-01
2.080000000000000071e+00 -2.784050725277687488e-01
2.089999999999999858e+00 -2.694704356838391601e-01
2.100000000000000089e+00 -2.646170846195431414e-01
2.109999999999999876e+00 -2.638203165778222892e-01
2.120000000000000107e+00 -2.668168640337744146e-01
2.129999999999999893e+00 -2.731989665651500254e-01
2.140000000000000124e+00 -2.819675268138789326e-01
2.149999999999999911e+00 -2.922443712803501903e-01
2.160000000000000142e+00 -3.027265682983815709e-01
2.169999999999999929e+00 -3.119199283840954906e-01
2.180000000000000160e+00 -3.187376822457141934e-01
2.189999999999999947e+00 -3.213132375404200713e-01
2.200000000000000178e+00 -3.189037156823011365e-01
2.209999999999999964e+00 -3.099060122533228712e-01
2.220000000000000195e+00 -2.938093736562152336e-01
2.229999999999999982e+00 -2.698830260465055475e-01
2.240000000000000213e+00 -2.377980750462423687e-01
2.250000000000000000e+00 -1.980317021477545070e-01
2.260000000000000231e+00 -1.505063821608957075e-01
2.270000000000000018e+00 -9.685174564630384675e-02
2.280000000000000249e+00 -3.745707799946121352e-02
2.290000000000000036e+00 2.539360781333778114e-02
2.300000000000000266e+00 9.043082386095413483e-02
2.310000000000000053e+00 1.554528626863317109e-01
2.319999999999999840e+00 2.183631108403618903e-01
2.330000000000000071e+00 2.772713808171592964e-01
2.339999999999999858e+00 3.299789933211566550e-01
2.350000000000000089e+00 3.747149491684361178e-01
2.359999999999999876e+00 4.100543052712494196e-01
2.370000000000000107e+00 4.341812385717617184e-01
2.379999999999999893e+00 4.471262412301051925e-01
2.390000000000000124e+00 4.469953211901400714e-01
2.399999999999999911e+00 4.355712164590221924e-01
2.410000000000000142e+00 4.110441705609578222e-01
2.419999999999999929e+00 3.764516623066836987e-01
2.430000000000000160e+00 3.313471088933347963e-01
2.439999999999999947e+00 2.786225970335683977e-01
2.450000000000000178e+00 2.194429530826821906e-01
2.459999999999999964e+00 1.564235330965473847e-01
2.470000000000000195e+00 9.168106930191337323e-02
2.479999999999999982e+00 2.773213660010908493e-02
2.490000000000000213e+00 -3.330415101763264246e-02
2.500000000000000000e+00 -8.877597219740321344e-02
2.510000000000000231e+00 -1.375120525728645016e-01
2.520000000000000018e+00 -1.765560069950582178e-01
2.530000000000000249e+00 -2.062477337896667096e-01
2.540000000000000036e+00 -2.237665420345363587e-01
2.550000000000000266e+00 -2.305380653614417519e-01
2.560000000000000053e+00 -2.250529794793572069e-01
2.569999999999999840e+00 -2.088939611911828642e-01
2.580000000000000071e+00 -1.822469608813956365e-01
2.589999999999999858e+00 -1.467157489360672307e-01
2.600000000000000089e+00 -1.038753924800890766e-01
2.609999999999999876e+00 -5.540726427255215913e-02
2.620000000000000107e+00 -3.578701436903683475e-03
2.629999999999999893e+00 4.966968517314437892e-02
2.640000000000000124e+00 1.022752863364772558e-01
2.649999999999999911e+00 1.518373600114324984e-01
2.660000000000000142e+00 1.971734545596015575e-01
2.669999999999999929e+00 2.358780055852457147e-01
2.680000000000000160e+00 2.675190521733383231e-01
2.689999999999999947e+00 2.904662281417160763e-01
2.700000000000000178e+00 3.046965924993735308e-01
2.709999999999999964e+00 3.098495268374851785e-01
2.720000000000000195e+00 3.061331132855498183e-01
2.729999999999999982e+00 2.945083885888470920e-01
2.740000000000000213e+00 2.753953046387173087e-01
2.750000000000000000e+00 2.507119534008431239e-01
2.760000000000000231e+00 2.212041603591504701e-01
2.770000000000000018e+00 1.890654572137336342e-01
2.780000000000000249e+00 1.555878397018957970e-01
2.790000000000000036e+00 1.225345028032850392e-01
2.800000000000000266e+00 9.152788553816315620e-02
2.810000000000000053e+00 6.375430866362075122e-02
2.819999999999999840e+00 4.053504431485958209e-02
2.830000000000000071e+00 2.265468140855650750e-02
2.839999999999999858e+00 1.059252292376295854e-02
2.850000000000000089e+00 4.841852600518181844e-03
2.859999999999999876e+00 4.827688331459726971e-03
2.870000000000000107e+00 1.074632781754636043e-02
2.879999999999999893e+00 2.113310513968656018e-02
2.890000000000000124e+00 3.576591353192489636e-02
2.899999999999999911e+00 5.282344520435832552e-02
2.910000000000000142e+00 7.135062341398409891e-02
2.919999999999999929e+00 8.980680754830216994e-02
2.930000000000000160e+00 1.068058474395916779e-01
2.939999999999999947e+00 1.210905987071761725e-01
2.950000000000000178e+00 1.314637107541622996e-01
2.959999999999999964e+00 1.368591716878970466e-01
2.970000000000000195e+00 1.368120658997932781e-01
2.979999999999999982e+00 1.304023270135644952e-01
2.990000000000000213e+00 1.181858898921080842e-01
3.000000000000000000e+00 9.944958075910917406e-02
3.010000000000000231e+00 7.565386794049809571e-02
3.020000000000000018e+00 4.665207995992736584e-02
3.030000000000000249e+00 1.422413300074765186e-02
3.040000000000000036e+00 -2.086612457032406207e-02
3.050000000000000266e+00 -5.699078492389243744e-02
3.060000000000000053e+00 -9.279361915933542759e-02
3.070000000000000284e+00 -1.267404563490837632e-01
3.080000000000000071e+00 -1.575078896875343470e-01
3.089999999999999858e+00 -1.835494191729012403e-01
3.100000000000000089e+00 -2.041912263765463531e-01
3.109999999999999876e+00 -2.178033186141023758e-01
3.120000000000000107e+00 -2.247958901201044801e-01
3.129999999999999893e+00 -2.234888435048448529e-01
3.140000000000000124e+00 -2.152843985718818354e-01
3.149999999999999911e+00 -1.992739052157019575e-01
3.160000000000000142e+00 -1.770178860931965747e-01
3.169999999999999929e+00 -1.487392152609611495e-01
3.180000000000000160e+00 -1.159421067639965081e-01
3.189999999999999947e+00 -7.972967596284505354e-02
3.200000000000000178e+00 -4.158629990052239989e-02
3.209999999999999964e+00 -2.954619558187768918e-03
3.220000000000000195e+00 3.458908010464628591e-02
3.229999999999999982e+00 6.989944486885163455e-02
3.240000000000000213e+00 1.011978752993249325e-01
3.250000000000000000e+00 1.281280789323477054e-01
3.260000000000000231e+00 1.488790090761757945e-01
3.270000000000000018e+00 1.638351143961007117e-01
3.280000000000000249e+00 1.718421778963730995e-01
3.290000000000000036e+00 1.735294931112972561e-01
3.300000000000000266e+00 1.687382649271415291e-01
3.310000000000000053e+00 1.582118778564485795e-01
3.320000000000000284e+00 1.427124244440573508e-01
3.330000000000000071e+00 1.230839538116736825e-01
3.339999999999999858e+00 1.006496420480306186e-01
3.350000000000000089e+00 7.642810203600988728e-02
3.359999999999999876e+00 5.176995110704132874e-02
3.370000000000000107e+00 2.796807174571627058e-02
3.379999999999999893e+00 5.930943268443219195e-03
3.390000000000000124e+00 -1.297540679539324268e-02
3.399999999999999911e+00 -2.833969072096719638e-02
3.410000000000000142e+00 -3.918919413195596363e-02
3.419999999999999929e+00 -4.543078039562048476e-02
3.430000000000000160e+00 -4.682077243281664719e-02
3.439999999999999947e+00 -4.348264918465749584e-02
3.450000000000000178e+00 -3.595808172121658930e-02
3.459999999999999964e+00 -2.457650383250231663e-02
3.470000000000000195e+00 -1.044397837218568464e-02
3.479999999999999982e+00 5.836870402557522985e-03
3.490000000000000213e+00 2.302196198155254114e-02
3.500000000000000000e+00 4.013958348589235364e-02
3.510000000000000231e+00 5.622066789604070886e-02
3.520000000000000018e+00 7.013971223743702132e-02
3.530000000000000249e+00 8.126276194927370411e-02
3.540000000000000036e+00 8.874534326217467517e-02
3.550000000000000266e+00 9.219667438275074012e-02
3.560000000000000053e+00 9.139964454168668373e-02
3.570000000000000284e+00 8.616213746817334707e-02
3.580000000000000071e+00 7.700653024982734296e-02
3.589999999999999858e+00 6.397604419827257471e-02
3.600000000000000089e+00 4.817581486913213862e-02
3.609999999999999876e+00 2.999926576075548704e-02
3.620000000000000107e+00 1.074115944145412685e-02
3.629999999999999893e+00 -8.684094515172038550e-03
3.640000000000000124e+00 -2.719160006442545782e-02
3.649999999999999911e+00 -4.361454234808096603e-02
3.660000000000000142e+00 -5.705560805750016506e-02
3.669999999999999929e+00 -6.657409553182920547e-02
3.680000000000000160e+00 -7.137909421712065883e-02
3.689999999999999947e+00 -7.116585151420440347e-02
3.700000000000000178e+00 -6.521249778604075453e-02
3.709999999999999964e+00 -5.405910825377665402e-02
3.720000000000000195e+00 -3.710193522471619959e-02
3.729999999999999982e+00 -1.561949536535692587e-02
3.740000000000000213e+00 1.058473199349499287e-02
3.750000000000000000e+00 3.998359243872265378e-02
3.760000000000000231e+00 7.203737423529874007e-02
3.770000000000000018e+00 1.053954252004786485e-01
3.780000000000000249e+00 1.390150541720289734e-01
3.790000000000000036e+00 1.716678906979109964e-01
3.800000000000000266e+00 2.022990802841078684e-01
3.810000000000000053e+00 2.297103522106636320e-01
3.820000000000000284e+00 2.533168367635088014e-01
3.830000000000000071e+00 2.718835029487283728e-01
3.839999999999999858e+00 2.856361124005414309e-01
3.850000000000000089e+00 2.933138939199612105e-01
3.859999999999999876e+00 2.959023924711168263e-01
