# [DEFAULT]
# # input and output specifications
# dataformat = QA
# outputtype = gr
# 
# # PDF calculation setup
# mode = xray
# wavelength = 
# composition = Cl4.0Cr1.0Na1.0
# bgscale = 1.0
# rpoly = 0.9
# qmaxinst = 28
# qmin = 0.0
# qmax = 22
# rmin = 0.0
# rmax = 30.0
# rstep = 0.01
# 
# # End of config --------------------------------------------------------------
# 
# #### start data
# #S 1
# #L r(Å)  G(Å$^$)
# 
0.000000000000000000e+00 0.000000000000000000e+00
1.000000000000000021e-02 -1.832461917998949716e-03
2.000000000000000042e-02 -3.832572473582846351e-03
2.999999999999999889e-02 -6.192568331348593386e-03
4.000000000000000083e-02 -8.987329089184176167e-03
5.000000000000000278e-02 -1.231668868952178093e-02
5.999999999999999778e-02 -1.614512721269734802e-02
7.000000000000000666e-02 -2.040169528004618857e-02
8.000000000000000167e-02 -2.492156364184484885e-02
8.999999999999999667e-02 -2.947762136464862626e-02
1.000000000000000056e-01 -3.374958574567156477e-02
1.100000000000000006e-01 -3.746900381349815845e-02
1.199999999999999956e-01 -4.013669426452108613e-02
1.300000000000000044e-01 -4.159620843170450111e-02
1.400000000000000133e-01 -4.125868386992168763e-02
1.499999999999999944e-01 -3.912368430817025206e-02
1.600000000000000033e-01 -3.476256807063702464e-02
1.700000000000000122e-01 -2.827675473211881466e-02
1.799999999999999933e-01 -1.958775942283679308e-02
1.900000000000000022e-01 -8.917749136002905974e-03
2.000000000000000111e-01 3.407678010736777709e-03
2.099999999999999922e-01 1.698850908945766930e-02
2.200000000000000011e-01 3.120269068844697125e-02
2.300000000000000100e-01 4.538027909886183792e-02
2.399999999999999911e-01 5.886625981964048460e-02
2.500000000000000000e-01 7.062193676886979743e-02
2.600000000000000089e-01 8.021310791264597839e-02
2.700000000000000178e-01 8.649527078735520791e-02
2.800000000000000266e-01 8.920648823158686125e-02
2.899999999999999800e-01 8.749802592013868063e-02
2.999999999999999889e-01 8.123785954117650199e-02
3.099999999999999978e-01 7.020207056567748238e-02
3.200000000000000067e-01 5.440272477260495176e-02
3.300000000000000155e-01 3.438241599991573305e-02
3.400000000000000244e-01 1.040073217854756149e-02
3.500000000000000333e-01 -1.635535960905272132e-02
3.599999999999999867e-01 -4.518252342570574370e-02
3.699999999999999956e-01 -7.463611107992430826e-02
3.800000000000000044e-01 -1.033494624104455417e-01
3.900000000000000133e-01 -1.300334912279653143e-01
4.000000000000000222e-01 -1.529190502195692525e-01
4.100000000000000311e-01 -1.708793653222071829e-01
4.199999999999999845e-01 -1.823572573742776315e-01
4.299999999999999933e-01 -1.862761700121872699e-01
4.400000000000000022e-01 -1.819224279520696985e-01
4.500000000000000111e-01 -1.682273329319943778e-01
4.600000000000000200e-01 -1.457488521776355017e-01
4.700000000000000289e-01 -1.135290164080422493e-01
4.799999999999999822e-01 -7.346749028713600582e-02
4.899999999999999911e-01 -2.500479976409965624e-02
5.000000000000000000e-01 2.914743969635161247e-02
5.100000000000000089e-01 8.821182615319882181e-02
5.200000000000000178e-01 1.496541671501637749e-01
5.300000000000000266e-01 2.114913110199615476e-01
5.400000000000000355e-01 2.712520398279244516e-01
5.500000000000000444e-01 3.265735649498285320e-01
5.600000000000000533e-01 3.748165059925693821e-01
5.700000000000000622e-01 4.142464619747729948e-01
5.799999999999999600e-01 4.418436935188440051e-01
5.899999999999999689e-01 4.574348908649558676e-01
5.999999999999999778e-01 4.575560307513691916e-01
6.099999999999999867e-01 4.439425766994066769e-01
6.199999999999999956e-01 4.136377016516782912e-01
6.300000000000000044e-01 3.693604443296877871e-01
6.400000000000000133e-01 3.101057200216281728e-01
6.500000000000000222e-01 2.385729622244464887e-01
6.600000000000000311e-01 1.559421234606023776e-01
6.700000000000000400e-01 6.494456827211053662e-02
6.800000000000000488e-01 -3.169534921021607138e-02
6.900000000000000577e-01 -1.309383876424123905e-01
7.000000000000000666e-01 -2.296333299599802591e-01
7.099999999999999645e-01 -3.240405086695562487e-01
7.199999999999999734e-01 -4.119271993686611788e-01
7.299999999999999822e-01 -4.885021585636309949e-01
7.399999999999999911e-01 -5.531928256648100950e-01
7.500000000000000000e-01 -6.015579574157940979e-01
7.600000000000000089e-01 -6.337654990277871159e-01
7.700000000000000178e-01 -6.471190425097140819e-01
7.800000000000000266e-01 -6.420829036636529485e-01
7.900000000000000355e-01 -6.184223289823814751e-01
8.000000000000000444e-01 -5.767442329247657318e-01
8.100000000000000533e-01 -5.192856563258753111e-01
8.200000000000000622e-01 -4.469420809782349568e-01
8.300000000000000711e-01 -3.637255886734747090e-01
8.399999999999999689e-01 -2.712211713805792179e-01
8.499999999999999778e-01 -1.739304926654048900e-01
8.599999999999999867e-01 -7.474208981545321651e-02
8.699999999999999956e-01 2.265910317693043893e-02
8.800000000000000044e-01 1.145339515374853290e-01
8.900000000000000133e-01 1.981121531129760027e-01
9.000000000000000222e-01 2.701374376952536682e-01
9.100000000000000311e-01 3.283291424170844963e-01
9.200000000000000400e-01 3.711699765582794353e-01
9.300000000000000488e-01 3.965834029746207468e-01
9.400000000000000577e-01 4.055071286881757331e-01
9.500000000000000666e-01 3.960484884221235347e-01
9.599999999999999645e-01 3.715988845566650101e-01
9.699999999999999734e-01 3.307350265896416008e-01
9.799999999999999822e-01 2.782214191287724070e-01
9.899999999999999911e-01 2.146825518326417048e-01
1.000000000000000000e+00 1.442918273579817945e-01
1.010000000000000009e+00 6.954021003150877289e-02
1.020000000000000018e+00 -5.945635279817115988e-03
1.030000000000000027e+00 -7.906229108659401650e-02
1.040000000000000036e+00 -1.464432023979648778e-01
1.050000000000000044e+00 -2.057510434701509405e-01
1.060000000000000053e+00 -2.536022699009433112e-01
1.070000000000000062e+00 -2.895489394623522172e-01
1.080000000000000071e+00 -3.100877516674868661e-01
1.090000000000000080e+00 -3.170006181661882971e-01
1.100000000000000089e+00 -3.075514233995244595e-01
1.110000000000000098e+00 -2.847002715797535277e-01
1.120000000000000107e+00 -2.478227329769904508e-01
1.130000000000000115e+00 -1.998829314732949169e-01
1.140000000000000124e+00 -1.423856817247699524e-01
1.150000000000000133e+00 -7.825353136314916469e-02
1.159999999999999920e+00 -1.024992469310728738e-02
1.169999999999999929e+00 5.856688417329986712e-02
1.179999999999999938e+00 1.254062252023196156e-01
1.189999999999999947e+00 1.868159630152851913e-01
1.199999999999999956e+00 2.412395654193837391e-01
1.209999999999999964e+00 2.846592419664635831e-01
1.219999999999999973e+00 3.172761604547021386e-01
1.229999999999999982e+00 3.358619628436360083e-01
1.239999999999999991e+00 3.413758921400871782e-01
1.250000000000000000e+00 3.324478815244352736e-01
1.260000000000000009e+00 3.103817255471550407e-01
1.270000000000000018e+00 2.759097550764042506e-01
1.280000000000000027e+00 2.305780933088742712e-01
1.290000000000000036e+00 1.767888002843716333e-01
1.300000000000000044e+00 1.164647780674172017e-01
1.310000000000000053e+00 5.272123260426712921e-02
1.320000000000000062e+00 -1.186492546036821243e-02
1.330000000000000071e+00 -7.461839296777986186e-02
1.340000000000000080e+00 -1.322490949292291218e-01
1.350000000000000089e+00 -1.831583238654680701e-01
1.360000000000000098e+00 -2.242666828929885114e-01
1.370000000000000107e+00 -2.547107643555924228e-01
1.380000000000000115e+00 -2.726751267495146069e-01
1.390000000000000124e+00 -2.777189398886799054e-01
1.400000000000000133e+00 -2.698951265996210602e-01
1.409999999999999920e+00 -2.490593682626178473e-01
1.419999999999999929e+00 -2.171361744353367818e-01
1.429999999999999938e+00 -1.743795937797377182e-01
1.439999999999999947e+00 -1.239981803943228655e-01
1.449999999999999956e+00 -6.693253706162628769e-02
1.459999999999999964e+00 -6.612295994473908409e-03
1.469999999999999973e+00 5.485750647532734725e-02
1.479999999999999982e+00 1.148107065390423231e-01
1.489999999999999991e+00 1.706481822382201752e-01
1.500000000000000000e+00 2.202722052620541271e-01
1.510000000000000009e+00 2.616709407146811661e-01
1.520000000000000018e+00 2.930583611299821256e-01
1.530000000000000027e+00 3.138527277337703758e-01
1.540000000000000036e+00 3.224372112576365246e-01
1.550000000000000044e+00 3.200375511529164885e-01
1.560000000000000053e+00 3.052566224448549081e-01
1.570000000000000062e+00 2.808085109522677203e-01
1.580000000000000071e+00 2.461832411009465538e-01
1.590000000000000080e+00 2.044555476621972012e-01
1.600000000000000089e+00 1.565816630580633140e-01
1.610000000000000098e+00 1.052136530500382833e-01
1.620000000000000107e+00 5.227128306847684397e-02
1.630000000000000115e+00 8.235108997658481533e-05
1.640000000000000124e+00 -4.941103740880870704e-02
1.650000000000000133e+00 -9.403347246199800225e-02
1.660000000000000142e+00 -1.327039197657094993e-01
1.669999999999999929e+00 -1.632768722928482075e-01
1.679999999999999938e+00 -1.861191316667008822e-01
1.689999999999999947e+00 -1.991374766506408822e-01
1.699999999999999956e+00 -2.040027236653771670e-01
1.709999999999999964e+00 -1.997097861708853894e-01
1.719999999999999973e+00 -1.881414933894733077e-01
1.729999999999999982e+00 -1.697224360351746453e-01
1.739999999999999991e+00 -1.463155569903681341e-01
1.750000000000000000e+00 -1.193752737792195817e-01
1.760000000000000009e+00 -9.076168532326700511e-02
1.770000000000000018e+00 -6.223414016464033638e-02
1.780000000000000027e+00 -3.575915221628511720e-02
1.790000000000000036e+00 -1.259571815342048172e-02
1.800000000000000044e+00 5.085863883576612413e-03
1.810000000000000053e+00 1.707894084705783092e-02
1.820000000000000062e+00 2.132795715753543070e-02
1.830000000000000071e+00 1.850665041363853958e-02
1.840000000000000080e+00 7.495767885191293063e-03
1.850000000000000089e+00 -1.074245657046286190e-02
1.860000000000000098e+00 -3.607893037555423565e-02
1.870000000000000107e+00 -6.739904315116058975e-02
1.880000000000000115e+00 -1.035361644794168395e-01
1.890000000000000124e+00 -1.432162896198130586e-01
1.900000000000000133e+00 -1.847792515454129147e-01
1.910000000000000142e+00 -2.266914210080964998e-01
1.919999999999999929e+00 -2.675091400298019728e-01
1.929999999999999938e+00 -3.053300479154612557e-01
1.939999999999999947e+00 -3.394337426332980634e-01
1.949999999999999956e+00 -3.680099486573161771e-01
1.959999999999999964e+00 -3.908977261186704077e-01
1.969999999999999973e+00 -4.069935871644824732e-01
1.979999999999999982e+00 -4.164565471165660449e-01
1.989999999999999991e+00 -4.192157729436942204e-01
2.000000000000000000e+00 -4.156318986762150836e-01
2.010000000000000231e+00 -4.066186649493295779e-01
2.020000000000000018e+00 -3.927321193672774213e-01
2.030000000000000249e+00 -3.754925516184761669e-01
2.040000000000000036e+00 -3.557247427205962320e-01
2.049999999999999822e+00 -3.349743387104581749e-01
2.060000000000000053e+00 -3.144103206448822241e-01
2.069999999999999840e+00 -2.951106854150926662e-01
2.080000000000000071e+00 -2.782688771013332452e-01
2.089999999999999858e+00 -2.644633843893447467e-01
2.100000000000000089e+00 -2.544097089016701951e-01
2.109999999999999876e+00 -2.482905263606491608e-01
2.120000000000000107e+00 -2.460320830271399417e-01
2.129999999999999893e+00 -2.474502945607229276e-01
2.140000000000000124e+00 -2.517036202587886740e-01
2.149999999999999911e+00 -2.581739143271788439e-01
2.160000000000000142e+00 -2.656041720529856986e-01
2.169999999999999929e+00 -2.728070329417886519e-01
2.180000000000000160e+00 -2.786090403027253748e-01
2.189999999999999947e+00 -2.813825309954885445e-01
2.200000000000000178e+00 -2.802595431791372049e-01
2.209999999999999964e+00 -2.737257700932087534e-01
2.220000000000000195e+00 -2.611365883264497034e-01
2.229999999999999982e+00 -2.416874053871499450e-01
2.240000000000000213e+00 -2.149056938902974279e-01
2.250000000000000000e+00 -1.810690428067539270e-01
2.260000000000000231e+00 -1.399271352411408098e-01
2.270000000000000018e+00 -9.285897229362578831e-02
2.280000000000000249e+00 -4.002094125793942414e-02
2.290000000000000036e+00 1.651498444988119471e-02
2.300000000000000266e+00 7.578365377776766221e-02
2.310000000000000053e+00 1.357113125555544364e-01
2.319999999999999840e+00 1.944979201113871126e-01
2.330000000000000071e+00 2.503350462498535323e-01
2.339999999999999858e+00 3.012197365290880668e-01
2.350000000000000089e+00 3.454463009989635069e-01
2.359999999999999876e+00 3.816224609636936771e-01
2.370000000000000107e+00 4.079949207977696668e-01
2.379999999999999893e+00 4.244455016117821278e-01
2.390000000000000124e+00 4.291321506494798488e-01
2.399999999999999911e+00 4.235378363917350897e-01
2.410000000000000142e+00 4.058653971436043117e-01
2.419999999999999929e+00 3.787906917272104712e-01
2.430000000000000160e+00 3.417490669583172491e-01
2.439999999999999947e+00 2.973295005834741822e-01
2.450000000000000178e+00 2.464732501670939824e-01
2.459999999999999964e+00 1.915387465352863805e-01
2.470000000000000195e+00 1.344066235132387321e-01
2.479999999999999982e+00 7.735038101782144848e-02
2.490000000000000213e+00 2.233536197437308371e-02
2.500000000000000000e+00 -2.824465716287277023e-02
2.510000000000000231e+00 -7.321727089858107163e-02
2.520000000000000018e+00 -1.099142810774692280e-01
2.530000000000000249e+00 -1.385024650688268244e-01
2.540000000000000036e+00 -1.564203856580501928e-01
2.550000000000000266e+00 -1.648381302590129771e-01
2.560000000000000053e+00 -1.623553009642934586e-01
2.569999999999999840e+00 -1.503285862470774281e-01
2.580000000000000071e+00 -1.288871447678227034e-01
2.589999999999999858e+00 -9.944223188464784702e-02
2.600000000000000089e+00 -6.339617596110806719e-02
2.609999999999999876e+00 -2.225796855368305377e-02
2.620000000000000107e+00 2.192159696750341225e-02
2.629999999999999893e+00 6.737678367199043117e-02
2.640000000000000124e+00 1.122281835853814330e-01
2.649999999999999911e+00 1.542751155648261208e-01
2.660000000000000142e+00 1.924348993020510157e-01
2.669999999999999929e+00 2.244966369238700077e-01
2.680000000000000160e+00 2.500639393325815307e-01
2.689999999999999947e+00 2.676400332028764373e-01
2.700000000000000178e+00 2.772095130261376106e-01
2.709999999999999964e+00 2.784512511211438279e-01
2.720000000000000195e+00 2.715747781490902568e-01
2.729999999999999982e+00 2.574842022474112535e-01
2.740000000000000213e+00 2.366045798225279995e-01
2.750000000000000000e+00 2.107233135036466198e-01
2.760000000000000231e+00 1.805951837328137743e-01
2.770000000000000018e+00 1.482518317318513024e-01
2.780000000000000249e+00 1.149794049652365924e-01
2.790000000000000036e+00 8.240431965698714889e-02
2.800000000000000266e+00 5.211624624060627597e-02
2.810000000000000053e+00 2.521833860369616931e-02
2.819999999999999840e+00 2.995145846618295707e-03
2.830000000000000071e+00 -1.380761872023265890e-02
2.839999999999999858e+00 -2.472913430058370707e-02
2.850000000000000089e+00 -2.927770924513307255e-02
2.859999999999999876e+00 -2.802391712032700766e-02
2.870000000000000107e+00 -2.073860861211427806e-02
2.879999999999999893e+00 -8.871472031489731000e-03
2.890000000000000124e+00 7.422990630169327281e-03
2.899999999999999911e+00 2.633281166075676985e-02
2.910000000000000142e+00 4.698285566494932175e-02
2.919999999999999929e+00 6.783862371356055854e-02
2.930000000000000160e+00 8.757614878981681561e-02
2.939999999999999947e+00 1.049423395413219273e-01
2.950000000000000178e+00 1.187605446148801702e-01
2.959999999999999964e+00 1.279643023011250713e-01
2.970000000000000195e+00 1.320564420478194945e-01
2.979999999999999982e+00 1.301050234647674608e-01
2.990000000000000213e+00 1.225863565052641158e-01
3.000000000000000000e+00 1.087511059205688857e-01
3.010000000000000231e+00 8.995672222929579354e-02
3.020000000000000018e+00 6.597762152327674157e-02
3.030000000000000249e+00 3.849742696885015414e-02
3.040000000000000036e+00 8.165342603990589226e-03
3.050000000000000266e+00 -2.347586531362318846e-02
3.060000000000000053e+00 -5.518483742431486150e-02
3.070000000000000284e+00 -8.551332277454105901e-02
3.080000000000000071e+00 -1.132116589572878945e-01
3.089999999999999858e+00 -1.368308261319943764e-01
3.100000000000000089e+00 -1.556965577034835069e-01
3.109999999999999876e+00 -1.682929915836434698e-01
3.120000000000000107e+00 -1.749390039036769484e-01
3.129999999999999893e+00 -1.740816197392678621e-01
3.140000000000000124e+00 -1.669646536371913736e-01
3.149999999999999911e+00 -1.527478136221633032e-01
3.160000000000000142e+00 -1.328450079371775172e-01
3.169999999999999929e+00 -1.074630826964808883e-01
3.180000000000000160e+00 -7.798445717651826536e-02
3.189999999999999947e+00 -4.543383052227062402e-02
3.200000000000000178e+00 -1.119153389694616668e-02
3.209999999999999964e+00 2.340303469566269376e-02
3.220000000000000195e+00 5.687138572272663894e-02
3.229999999999999982e+00 8.815613947876635437e-02
3.240000000000000213e+00 1.155815016211517166e-01
3.250000000000000000e+00 1.388336941666834523e-01
3.260000000000000231e+00 1.562064968028529788e-01
3.270000000000000018e+00 1.680815402818106319e-01
3.280000000000000249e+00 1.733781983165055274e-01
3.290000000000000036e+00 1.727059117485596762e-01
3.300000000000000266e+00 1.659290628730535622e-01
3.310000000000000053e+00 1.537660658123325419e-01
3.320000000000000284e+00 1.369527228608962977e-01
3.330000000000000071e+00 1.163080948790307517e-01
3.339999999999999858e+00 9.309439710749994878e-02
3.350000000000000089e+00 6.830513649730275694e-02
3.359999999999999876e+00 4.321803190150384777e-02
3.370000000000000107e+00 1.909840293061550176e-02
3.379999999999999893e+00 -3.206269081155979812e-03
3.390000000000000124e+00 -2.236275119784898041e-02
3.399999999999999911e+00 -3.799387338636746325e-02
3.410000000000000142e+00 -4.915251701854781580e-02
3.419999999999999929e+00 -5.575800312468031511e-02
3.430000000000000160e+00 -5.757315252447918474e-02
3.439999999999999947e+00 -5.471736875843562220e-02
3.450000000000000178e+00 -4.771840899429297816e-02
3.459999999999999964e+00 -3.688738665839366715e-02
3.470000000000000195e+00 -2.330509443128170669e-02
3.479999999999999982e+00 -7.541793393387589625e-03
3.490000000000000213e+00 9.180486076776869439e-03
3.500000000000000000e+00 2.593316397133438658e-02
3.510000000000000231e+00 4.175698187859146204e-02
3.520000000000000018e+00 5.556361974480653748e-02
3.530000000000000249e+00 6.671976952788502557e-02
3.540000000000000036e+00 7.439659124913551580e-02
3.550000000000000266e+00 7.819522335894495135e-02
3.560000000000000053e+00 7.788555817153725025e-02
3.570000000000000284e+00 7.325659997393205169e-02
3.580000000000000071e+00 6.479287258265369054e-02
3.589999999999999858e+00 5.250265743611096797e-02
3.600000000000000089e+00 3.744301644385338718e-02
3.609999999999999876e+00 1.994890286441051291e-02
3.620000000000000107e+00 1.274562777283755072e-03
3.629999999999999893e+00 -1.774101187139397184e-02
3.640000000000000124e+00 -3.604245584374924510e-02
3.649999999999999911e+00 -5.253244328428441356e-02
3.660000000000000142e+00 -6.633858897694741574e-02
3.669999999999999929e+00 -7.656008504107639223e-02
3.680000000000000160e+00 -8.243032049667210759e-02
3.689999999999999947e+00 -8.363890791007157210e-02
3.700000000000000178e+00 -7.948744782293024058e-02
3.709999999999999964e+00 -7.046110023385888932e-02
3.720000000000000195e+00 -5.597282029923218022e-02
3.729999999999999982e+00 -3.720985886862878539e-02
3.740000000000000213e+00 -1.396673025900803389e-02
3.750000000000000000e+00 1.232681089790170492e-02
3.760000000000000231e+00 4.118142006783899467e-02
3.770000000000000018e+00 7.133032689318512254e-02
3.780000000000000249e+00 1.018055345167703518e-01
3.790000000000000036e+00 1.314569823194284837e-01
3.800000000000000266e+00 1.592986167429743527e-01
3.810000000000000053e+00 1.842145209628703317e-01
3.820000000000000284e+00 2.056538268942627312e-01
3.830000000000000071e+00 2.224757069557056210e-01
3.839999999999999858e+00 2.348839899573255119e-01
3.850000000000000089e+00 2.417270688061901873e-01
3.859999999999999876e+00 2.439175593292614852e-01
