# [DEFAULT]
# # input and output specifications
# dataformat = QA
# outputtype = gr
# 
# # PDF calculation setup
# mode = xray
# wavelength = 
# composition = Cl4.0Cr1.0Na1.0
# bgscale = 1.0
# rpoly = 0.9
# qmaxinst = 28
# qmin = 0.0
# qmax = 22
# rmin = 0.0
# rmax = 30.0
# rstep = 0.01
# 
# # End of config --------------------------------------------------------------
# 
# #### start data
# #S 1
# #L r(Å)  G(Å$^$)
# 
0.000000000000000000e+00 0.000000000000000000e+00
1.000000000000000021e-02 -2.213985668195673183e-03
2.000000000000000042e-02 -4.579942070902944147e-03
2.999999999999999889e-02 -7.270806285394812267e-03
4.000000000000000083e-02 -1.035106585692167902e-02
5.000000000000000278e-02 -1.390396303272585163e-02
5.999999999999999778e-02 -1.788687624459991271e-02
7.000000000000000666e-02 -2.222104470967027970e-02
8.000000000000000167e-02 -2.673648285915055517e-02
8.999999999999999667e-02 -3.121020322323162996e-02
1.000000000000000056e-01 -3.531865227416138009e-02
1.100000000000000006e-01 -3.880884730034971086e-02
1.199999999999999956e-01 -4.118161840863708567e-02
1.300000000000000044e-01 -4.230248673439640505e-02
1.400000000000000133e-01 -4.159014165479059388e-02
1.499999999999999944e-01 -3.906498128041343415e-02
1.600000000000000033e-01 -3.431356150686409867e-02
1.700000000000000122e-01 -2.745456642280137000e-02
1.799999999999999933e-01 -1.842638436227971022e-02
1.900000000000000022e-01 -7.466424082739369326e-03
2.000000000000000111e-01 5.088342800109213297e-03
2.099999999999999922e-01 1.882332715550529348e-02
2.200000000000000011e-01 3.311603278902498781e-02
2.300000000000000100e-01 4.728229211572294866e-02
2.399999999999999911e-01 6.067979660349903659e-02
2.500000000000000000e-01 7.225722183645692798e-02
2.600000000000000089e-01 8.160222790951297822e-02
2.700000000000000178e-01 8.756889888333350969e-02
2.800000000000000266e-01 8.991587774015831480e-02
2.899999999999999800e-01 8.780482293084936052e-02
2.999999999999999889e-01 8.112298551437080452e-02
3.099999999999999978e-01 6.966299392348251907e-02
3.200000000000000067e-01 5.345615874592236916e-02
3.300000000000000155e-01 3.306035924766137502e-02
3.400000000000000244e-01 8.756002201864683532e-03
3.500000000000000333e-01 -1.826314818917237903e-02
3.599999999999999867e-01 -4.727040654257106539e-02
3.699999999999999956e-01 -7.682642406467615759e-02
3.800000000000000044e-01 -1.055437748814272297e-01
3.900000000000000133e-01 -1.321461201509658845e-01
4.000000000000000222e-01 -1.548550318887886579e-01
4.100000000000000311e-01 -1.725575697966043043e-01
4.199999999999999845e-01 -1.837009911148108909e-01
4.299999999999999933e-01 -1.872231415810521049e-01
4.400000000000000022e-01 -1.824253303168523466e-01
4.500000000000000111e-01 -1.682548499072693826e-01
4.600000000000000200e-01 -1.452888706586064616e-01
4.700000000000000289e-01 -1.125889468188751297e-01
4.799999999999999822e-01 -7.207025126047908459e-02
4.899999999999999911e-01 -2.319829310718476631e-02
5.000000000000000000e-01 3.130853173563362402e-02
5.100000000000000089e-01 9.064898622469973188e-02
5.200000000000000178e-01 1.522871844736196356e-01
5.300000000000000266e-01 2.142248450009667793e-01
5.400000000000000355e-01 2.739915847787137149e-01
5.500000000000000444e-01 3.292224948463492451e-01
5.600000000000000533e-01 3.772804262681829224e-01
5.700000000000000622e-01 4.164422141849746239e-01
5.799999999999999600e-01 4.436922500321225926e-01
5.899999999999999689e-01 4.588782016155774079e-01
5.999999999999999778e-01 4.585439952892917947e-01
6.099999999999999867e-01 4.444489243986259885e-01
6.199999999999999956e-01 4.136511071170820286e-01
6.300000000000000044e-01 3.688891698706187050e-01
6.400000000000000133e-01 3.091775347821749675e-01
6.500000000000000222e-01 2.372303527959823688e-01
6.600000000000000311e-01 1.542445822675871381e-01
6.700000000000000400e-01 6.296363658804941810e-02
6.800000000000000488e-01 -3.388022677689991879e-02
6.900000000000000577e-01 -1.332368728655637935e-01
7.000000000000000666e-01 -2.319599925668441032e-01
7.099999999999999645e-01 -3.263000267065804261e-01
7.199999999999999734e-01 -4.140418995569055682e-01
7.299999999999999822e-01 -4.903868978719241323e-01
7.399999999999999911e-01 -5.547871559987896939e-01
7.500000000000000000e-01 -6.028045745929442312e-01
7.600000000000000089e-01 -6.346285798790162191e-01
7.700000000000000178e-01 -6.475754842244046960e-01
7.800000000000000266e-01 -6.421281827298994660e-01
7.900000000000000355e-01 -6.180677412715352981e-01
8.000000000000000444e-01 -5.760182344359410234e-01
8.100000000000000533e-01 -5.182286079748171792e-01
8.200000000000000622e-01 -4.456115388003275557e-01
8.300000000000000711e-01 -3.621814377024101250e-01
8.399999999999999689e-01 -2.695411186603074438e-01
8.499999999999999778e-01 -1.721833505482321391e-01
8.599999999999999867e-01 -7.301063515560511641e-02
8.699999999999999956e-01 2.430679771455123914e-02
8.800000000000000044e-01 1.160263809670545460e-01
8.900000000000000133e-01 1.993924395918692805e-01
9.000000000000000222e-01 2.711558882203445320e-01
9.100000000000000311e-01 3.290503296894276009e-01
9.200000000000000400e-01 3.715720073196400186e-01
9.300000000000000488e-01 3.966591356235099619e-01
9.400000000000000577e-01 4.052633011346476466e-01
9.500000000000000666e-01 3.955083615450767365e-01
9.599999999999999645e-01 3.707938170282344403e-01
9.699999999999999734e-01 3.297155863813880927e-01
9.799999999999999822e-01 2.770378984948375090e-01
9.899999999999999911e-01 2.134008298895789801e-01
1.000000000000000000e+00 1.429738304564568685e-01
1.010000000000000009e+00 6.825479981483387193e-02
1.020000000000000018e+00 -7.135190199030963173e-03
1.030000000000000027e+00 -8.009567156042073088e-02
1.040000000000000036e+00 -1.472666909136795543e-01
1.050000000000000044e+00 -2.063218559432014321e-01
1.060000000000000053e+00 -2.538857303946339128e-01
1.070000000000000062e+00 -2.895249712976092349e-01
1.080000000000000071e+00 -3.097470998649702323e-01
1.090000000000000080e+00 -3.163470044217895349e-01
1.100000000000000089e+00 -3.066026057501225477e-01
1.110000000000000098e+00 -2.834821862891953592e-01
1.120000000000000107e+00 -2.463748209656483890e-01
1.130000000000000115e+00 -1.982493297781815766e-01
1.140000000000000124e+00 -1.406189022279433209e-01
1.150000000000000133e+00 -7.640886467650893910e-02
1.159999999999999920e+00 -8.383174387029818098e-03
1.169999999999999929e+00 6.039822093410590620e-02
1.179999999999999938e+00 1.271521577480519138e-01
1.189999999999999947e+00 1.884259592166094566e-01
1.199999999999999956e+00 2.426763228556281515e-01
1.209999999999999964e+00 2.858868447865810514e-01
1.219999999999999973e+00 3.182731398818964275e-01
1.229999999999999982e+00 3.366126558733870677e-01
1.239999999999999991e+00 3.418753986243044385e-01
1.250000000000000000e+00 3.326992259280714404e-01
1.260000000000000009e+00 3.103954705015503079e-01
1.270000000000000018e+00 2.757025453447021768e-01
1.280000000000000027e+00 2.301716092331923258e-01
1.290000000000000036e+00 1.762061823321656728e-01
1.300000000000000044e+00 1.157319992129982600e-01
1.310000000000000053e+00 5.186034074149994261e-02
1.320000000000000062e+00 -1.283160465571955670e-02
1.330000000000000071e+00 -7.567623946379378741e-02
1.340000000000000080e+00 -1.333871444498880843e-01
1.350000000000000089e+00 -1.843738974371797179e-01
1.360000000000000098e+00 -2.255643979536091082e-01
1.370000000000000107e+00 -2.561025856429673953e-01
1.380000000000000115e+00 -2.741809375486956579e-01
1.390000000000000124e+00 -2.793652132383522280e-01
1.400000000000000133e+00 -2.717132198744456328e-01
1.409999999999999920e+00 -2.510866004742370317e-01
1.419999999999999929e+00 -2.194090127603881002e-01
1.429999999999999938e+00 -1.769394325374857857e-01
1.439999999999999947e+00 -1.268790192136849126e-01
1.449999999999999956e+00 -7.017104178051897234e-02
1.459999999999999964e+00 -1.023340697595257962e-02
1.469999999999999973e+00 5.083245398647599778e-02
1.479999999999999982e+00 1.103719144681281489e-01
1.489999999999999991e+00 1.657951680239706516e-01
1.500000000000000000e+00 2.150159351664539531e-01
1.510000000000000009e+00 2.560335213299007595e-01
1.520000000000000018e+00 2.870741773922828588e-01
1.530000000000000027e+00 3.075643270169372001e-01
1.540000000000000036e+00 3.159011843458273128e-01
1.550000000000000044e+00 3.133112999550186628e-01
1.560000000000000053e+00 2.984137095696612341e-01
1.570000000000000062e+00 2.739143027273294728e-01
1.580000000000000071e+00 2.393174172677839662e-01
1.590000000000000080e+00 1.976848636391899949e-01
1.600000000000000089e+00 1.499784689370151913e-01
1.610000000000000098e+00 9.883794858065142463e-02
1.620000000000000107e+00 4.617879231276783569e-02
1.630000000000000115e+00 -5.682961023219740629e-03
1.640000000000000124e+00 -5.481653508417408394e-02
1.650000000000000133e+00 -9.905867197379744638e-02
1.660000000000000142e+00 -1.373420097292614994e-01
1.669999999999999929e+00 -1.675351206939885984e-01
1.679999999999999938e+00 -1.900153400859622976e-01
1.689999999999999947e+00 -2.027069069400458112e-01
1.699999999999999956e+00 -2.072847446866096233e-01
1.709999999999999964e+00 -2.027603240977613464e-01
1.719999999999999973e+00 -1.910169003336192606e-01
1.729999999999999982e+00 -1.724896044604857792e-01
1.739999999999999991e+00 -1.490403102182388806e-01
1.750000000000000000e+00 -1.221251846180368417e-01
1.760000000000000009e+00 -9.360271180890601672e-02
1.770000000000000018e+00 -6.522504245352210572e-02
1.780000000000000027e+00 -3.895632138168506065e-02
1.790000000000000036e+00 -1.604168087651589719e-02
1.800000000000000044e+00 1.352966778972651291e-03
1.810000000000000053e+00 1.303718393031406096e-02
1.820000000000000062e+00 1.696430553540431360e-02
1.830000000000000071e+00 1.382197695288128400e-02
1.840000000000000080e+00 2.503803410535997316e-03
1.850000000000000089e+00 -1.601689524694821509e-02
1.860000000000000098e+00 -4.159820113810155928e-02
1.870000000000000107e+00 -7.311512464692325464e-02
1.880000000000000115e+00 -1.093925346632100837e-01
1.890000000000000124e+00 -1.491447081056500312e-01
1.900000000000000133e+00 -1.907104868872915304e-01
1.910000000000000142e+00 -2.325416232237244862e-01
1.919999999999999929e+00 -2.732027150466762033e-01
1.929999999999999938e+00 -3.107730689647609235e-01
1.939999999999999947e+00 -3.445473177820564392e-01
1.949999999999999956e+00 -3.727014221709112896e-01
1.959999999999999964e+00 -3.950870177671956807e-01
1.969999999999999973e+00 -4.105952360405420998e-01
1.979999999999999982e+00 -4.193938842084654062e-01
1.989999999999999991e+00 -4.214149104261532552e-01
2.000000000000000000e+00 -4.170245880479668266e-01
2.010000000000000231e+00 -4.071462928514346657e-01
2.020000000000000018e+00 -3.923402625956014522e-01
2.030000000000000249e+00 -3.741412148409520855e-01
2.040000000000000036e+00 -3.533794112045670066e-01
2.049999999999999822e+00 -3.316166794104471460e-01
2.060000000000000053e+00 -3.100327804916484520e-01
2.069999999999999840e+00 -2.897205882528451348e-01
2.080000000000000071e+00 -2.718903979381711578e-01
2.089999999999999858e+00 -2.571352077024601779e-01
2.100000000000000089e+00 -2.461899284045717673e-01
2.109999999999999876e+00 -2.392547538421941344e-01
2.120000000000000107e+00 -2.362723250357169069e-01
2.129999999999999893e+00 -2.370824481402690753e-01
2.140000000000000124e+00 -2.408504361168102847e-01
2.149999999999999911e+00 -2.469910629973864902e-01
2.160000000000000142e+00 -2.542381162349076629e-01
2.169999999999999929e+00 -2.614472271568737960e-01
2.180000000000000160e+00 -2.674204025781317107e-01
2.189999999999999947e+00 -2.705640521237924756e-01
2.200000000000000178e+00 -2.699863182992724986e-01
2.209999999999999964e+00 -2.641858187897278554e-01
2.220000000000000195e+00 -2.524966403282601912e-01
2.229999999999999982e+00 -2.341034405526241091e-01
2.240000000000000213e+00 -2.085122968952341505e-01
2.250000000000000000e+00 -1.759698704730225105e-01
2.260000000000000231e+00 -1.361987300454675365e-01
2.270000000000000018e+00 -9.053616607788500525e-02
2.280000000000000249e+00 -3.909774575186776568e-02
2.290000000000000036e+00 1.608370204501325187e-02
2.300000000000000266e+00 7.410271846982642574e-02
2.310000000000000053e+00 1.329145627770385307e-01
2.319999999999999840e+00 1.907850761739498802e-01
2.330000000000000071e+00 2.459317877101753758e-01
2.339999999999999858e+00 2.964048524208160451e-01
2.350000000000000089e+00 3.405276938619239968e-01
2.359999999999999876e+00 3.769309865980272067e-01
2.370000000000000107e+00 4.038972275039541815e-01
2.379999999999999893e+00 4.212890650464592990e-01
2.390000000000000124e+00 4.273057545344511876e-01
2.399999999999999911e+00 4.233658778993407146e-01
2.410000000000000142e+00 4.077119673069070638e-01
2.419999999999999929e+00 3.829261579278116501e-01
2.430000000000000160e+00 3.484449865393560164e-01
2.439999999999999947e+00 3.067709820060616210e-01
2.450000000000000178e+00 2.588014383225502035e-01
2.459999999999999964e+00 2.068144103883037543e-01
2.470000000000000195e+00 1.526199774284654198e-01
2.479999999999999982e+00 9.840751630800033400e-02
2.490000000000000213e+00 4.607278324919670404e-02
2.500000000000000000e+00 -2.089990090880657070e-03
2.510000000000000231e+00 -4.494685664753582388e-02
2.520000000000000018e+00 -7.995474112196225558e-02
2.530000000000000249e+00 -1.072675622997190520e-01
2.540000000000000036e+00 -1.244598740449447127e-01
2.550000000000000266e+00 -1.326538365075546899e-01
2.560000000000000053e+00 -1.305445919916362330e-01
2.569999999999999840e+00 -1.194437745209009083e-01
2.580000000000000071e+00 -9.951031055589060204e-02
2.589999999999999858e+00 -7.211861797506749494e-02
2.600000000000000089e+00 -3.863304603172999785e-02
2.609999999999999876e+00 -5.315636849180568196e-04
2.620000000000000107e+00 4.022744447552012437e-02
2.629999999999999893e+00 8.191302361828427248e-02
2.640000000000000124e+00 1.227662316967501610e-01
2.649999999999999911e+00 1.606394080553603665e-01
2.660000000000000142e+00 1.945643242670243023e-01
2.669999999999999929e+00 2.224154174281915974e-01
2.680000000000000160e+00 2.438814020358907875e-01
2.689999999999999947e+00 2.575615743689286252e-01
2.700000000000000178e+00 2.635086354613757065e-01
2.709999999999999964e+00 2.614749391792534072e-01
2.720000000000000195e+00 2.517346199600689616e-01
2.729999999999999982e+00 2.352162465710684047e-01
2.740000000000000213e+00 2.124150387348069657e-01
2.750000000000000000e+00 1.850798463551277251e-01
2.760000000000000231e+00 1.540437266989294895e-01
2.770000000000000018e+00 1.212434725577088979e-01
2.780000000000000249e+00 8.802925447021923977e-02
2.790000000000000036e+00 5.591602730216053280e-02
2.800000000000000266e+00 2.650659334474988332e-02
2.810000000000000053e+00 8.143049301328579570e-04
2.819999999999999840e+00 -1.991021773910694320e-02
2.830000000000000071e+00 -3.499138201871117293e-02
2.839999999999999858e+00 -4.402653253738451206e-02
2.850000000000000089e+00 -4.658007216155347213e-02
2.859999999999999876e+00 -4.328047507055348547e-02
2.870000000000000107e+00 -3.394683295354482266e-02
2.879999999999999893e+00 -2.006620870558325359e-02
2.890000000000000124e+00 -1.837429139737666549e-03
2.899999999999999911e+00 1.891883690558096576e-02
2.910000000000000142e+00 4.129695793944642562e-02
2.919999999999999929e+00 6.377218555348547480e-02
2.930000000000000160e+00 8.501323950471285917e-02
2.939999999999999947e+00 1.037859277664406610e-01
2.950000000000000178e+00 1.189281366134817275e-01
2.959999999999999964e+00 1.293971280238420951e-01
2.970000000000000195e+00 1.347220081201137842e-01
2.979999999999999982e+00 1.339976291138572084e-01
2.990000000000000213e+00 1.277240869358196029e-01
3.000000000000000000e+00 1.151805090014258875e-01
3.010000000000000231e+00 9.773347754133250576e-02
3.020000000000000018e+00 7.518141396937563781e-02
3.030000000000000249e+00 4.919995343298355639e-02
3.040000000000000036e+00 2.044454782251226704e-02
3.050000000000000266e+00 -9.561812257465622869e-03
3.060000000000000053e+00 -3.959465712865385678e-02
3.070000000000000284e+00 -6.823754686174560158e-02
3.080000000000000071e+00 -9.427522599595770936e-02
3.089999999999999858e+00 -1.163057423565171250e-01
3.100000000000000089e+00 -1.336919770927343376e-01
3.109999999999999876e+00 -1.449854791869836235e-01
3.120000000000000107e+00 -1.505245043959761442e-01
3.129999999999999893e+00 -1.488484515642078676e-01
3.140000000000000124e+00 -1.411918937564258791e-01
3.149999999999999911e+00 -1.268027661675314999e-01
3.160000000000000142e+00 -1.070768837326382394e-01
3.169999999999999929e+00 -8.227550288549315138e-02
3.180000000000000160e+00 -5.376319141908755123e-02
3.189999999999999947e+00 -2.257050314129500912e-02
3.200000000000000178e+00 9.939224040338364569e-03
3.209999999999999964e+00 4.247045413984599366e-02
3.220000000000000195e+00 7.356573585282225047e-02
3.229999999999999982e+00 1.022488868795495276e-01
3.240000000000000213e+00 1.268792507326717001e-01
3.250000000000000000e+00 1.472369280488932675e-01
3.260000000000000231e+00 1.616792666801653844e-01
3.270000000000000018e+00 1.706680412512967537e-01
3.280000000000000249e+00 1.732085804143972674e-01
3.290000000000000036e+00 1.699734119980539915e-01
3.300000000000000266e+00 1.609075131921874624e-01
3.310000000000000053e+00 1.467856371225577383e-01
3.320000000000000284e+00 1.283894253248461237e-01
3.330000000000000071e+00 1.065953996487787464e-01
3.339999999999999858e+00 8.265658630047290067e-02
3.350000000000000089e+00 5.762742654449849733e-02
3.359999999999999876e+00 3.271510339999447042e-02
3.370000000000000107e+00 9.244542606557071621e-03
3.379999999999999893e+00 -1.204871908788960298e-02
3.390000000000000124e+00 -2.981587708740938980e-02
3.399999999999999911e+00 -4.378368125085868590e-02
3.410000000000000142e+00 -5.304298569874555530e-02
3.419999999999999929e+00 -5.760312491134117474e-02
3.430000000000000160e+00 -5.729668328433409202e-02
3.439999999999999947e+00 -5.232624745565254976e-02
3.450000000000000178e+00 -4.329027379443740192e-02
3.459999999999999964e+00 -3.058519770517846917e-02
3.470000000000000195e+00 -1.533324295591330551e-02
3.479999999999999982e+00 1.800835208782226079e-03
3.490000000000000213e+00 1.960136391483412871e-02
3.500000000000000000e+00 3.704639606695053766e-02
3.510000000000000231e+00 5.321886671739482766e-02
3.520000000000000018e+00 6.697570766505478446e-02
3.530000000000000249e+00 7.773011080495501046e-02
3.540000000000000036e+00 8.465085987267041701e-02
3.550000000000000266e+00 8.738444589663096895e-02
3.560000000000000053e+00 8.574332701194720130e-02
3.570000000000000284e+00 7.956142700782625754e-02
3.580000000000000071e+00 6.939158779910191421e-02
3.589999999999999858e+00 5.529152409402013357e-02
3.600000000000000089e+00 3.838674698937316609e-02
3.609999999999999876e+00 1.907225301654660865e-02
3.620000000000000107e+00 -1.350981040391007609e-03
3.629999999999999893e+00 -2.198022951383650850e-02
3.640000000000000124e+00 -4.173788007897866886e-02
3.649999999999999911e+00 -5.947973695208657458e-02
3.660000000000000142e+00 -7.432620596676807467e-02
3.669999999999999929e+00 -8.536209565570050672e-02
3.680000000000000160e+00 -9.182298741187935875e-02
3.689999999999999947e+00 -9.342011708945452408e-02
3.700000000000000178e+00 -8.946560510630223451e-02
3.709999999999999964e+00 -8.049365908633288047e-02
3.720000000000000195e+00 -6.593904132852669575e-02
3.729999999999999982e+00 -4.704731167814679010e-02
3.740000000000000213e+00 -2.365177658493511359e-02
3.750000000000000000e+00 2.769605375918493886e-03
3.760000000000000231e+00 3.167828940340247645e-02
3.770000000000000018e+00 6.177395445510323879e-02
3.780000000000000249e+00 9.204779931981640906e-02
3.790000000000000036e+00 1.213265948516839693e-01
3.800000000000000266e+00 1.486088691554078023e-01
3.810000000000000053e+00 1.727636748688502477e-01
3.820000000000000284e+00 1.932579434057024315e-01
3.830000000000000071e+00 2.089456428603174432e-01
3.839999999999999858e+00 2.200779003787347587e-01
3.850000000000000089e+00 2.255137923668764366e-01
3.859999999999999876e+00 2.262269718512804340e-01
