# [DEFAULT]
# # input and output specifications
# dataformat = QA
# outputtype = gr
# 
# # PDF calculation setup
# mode = xray
# wavelength = 
# composition = Cl4.0Cr1.0Na1.0
# bgscale = 1.0
# rpoly = 0.9
# qmaxinst = 28
# qmin = 0.0
# qmax = 22
# rmin = 0.0
# rmax = 30.0
# rstep = 0.01
# 
# # End of config --------------------------------------------------------------
# 
# #### start data
# #S 1
# #L r(Å)  G(Å$^$)
# 
0.000000000000000000e+00 0.000000000000000000e+00
1.000000000000000021e-02 -2.586587599331908321e-03
2.000000000000000042e-02 -5.306065512463990948e-03
2.999999999999999889e-02 -8.308076338365489449e-03
4.000000000000000083e-02 -1.164495775774212344e-02
5.000000000000000278e-02 -1.538082782361971552e-02
5.999999999999999778e-02 -1.946596538402780435e-02
7.000000000000000666e-02 -2.381425418678870948e-02
8.000000000000000167e-02 -2.825252210326400018e-02
8.999999999999999667e-02 -3.256540755236789209e-02
1.000000000000000056e-01 -3.643046434561548336e-02
1.100000000000000006e-01 -3.961512734195513086e-02
1.199999999999999956e-01 -4.162758247692369129e-02
1.300000000000000044e-01 -4.235924063045723442e-02
1.400000000000000133e-01 -4.124580837402577055e-02
1.499999999999999944e-01 -3.833028971572416399e-02
1.600000000000000033e-01 -3.322244598452828851e-02
1.700000000000000122e-01 -2.605851917496204359e-02
1.799999999999999933e-01 -1.679699285193248307e-02
1.900000000000000022e-01 -5.689192949379888974e-03
2.000000000000000111e-01 6.919751313862102134e-03
2.099999999999999922e-01 2.060439175735079634e-02
2.200000000000000011e-01 3.475074954027330965e-02
2.300000000000000100e-01 4.866804860774393698e-02
2.399999999999999911e-01 6.173812862037536542e-02
2.500000000000000000e-01 7.291050613947214210e-02
2.600000000000000089e-01 8.180460067325837081e-02
2.700000000000000178e-01 8.729038412505620015e-02
2.800000000000000266e-01 8.915481912222729399e-02
2.899999999999999800e-01 8.658550131571143837e-02
2.999999999999999889e-01 7.949540415365760615e-02
3.099999999999999978e-01 6.770157898282860853e-02
3.200000000000000067e-01 5.125998917718160158e-02
3.300000000000000155e-01 3.074001820357487660e-02
3.400000000000000244e-01 6.446186556475093886e-03
3.500000000000000333e-01 -2.043690952576926109e-02
3.599999999999999867e-01 -4.916084754100197296e-02
3.699999999999999956e-01 -7.831551463972347138e-02
3.800000000000000044e-01 -1.065049463778519473e-01
3.900000000000000133e-01 -1.324900173786417445e-01
4.000000000000000222e-01 -1.545061522391258935e-01
4.100000000000000311e-01 -1.714773460840527397e-01
4.199999999999999845e-01 -1.818817562240269137e-01
4.299999999999999933e-01 -1.846956646094651266e-01
4.400000000000000022e-01 -1.792547345913004797e-01
4.500000000000000111e-01 -1.645492698322426894e-01
4.600000000000000200e-01 -1.411783176251401872e-01
4.700000000000000289e-01 -1.082534009116626200e-01
4.799999999999999822e-01 -6.768509979978286351e-02
4.899999999999999911e-01 -1.899543670227521464e-02
5.000000000000000000e-01 3.512857043099907456e-02
5.100000000000000089e-01 9.385017212220796157e-02
5.200000000000000178e-01 1.546690938955774808e-01
5.300000000000000266e-01 2.155855489126128066e-01
5.400000000000000355e-01 2.741668859206130571e-01
5.500000000000000444e-01 3.280777525608080669e-01
5.600000000000000533e-01 3.747232801960381776e-01
5.700000000000000622e-01 4.124282727158306572e-01
5.799999999999999600e-01 4.382295442587306744e-01
5.899999999999999689e-01 4.520215405439210743e-01
5.999999999999999778e-01 4.504174946737239393e-01
6.099999999999999867e-01 4.352036074005359301e-01
6.199999999999999956e-01 4.035188222061215080e-01
6.300000000000000044e-01 3.581076631454975789e-01
6.400000000000000133e-01 2.980507301204557979e-01
6.500000000000000222e-01 2.260611713123925337e-01
6.600000000000000311e-01 1.433670325462800266e-01
6.700000000000000400e-01 5.270859900785983265e-02
6.800000000000000488e-01 -4.319466656839907048e-02
6.900000000000000577e-01 -1.412978652892545595e-01
7.000000000000000666e-01 -2.385082648773028668e-01
7.099999999999999645e-01 -3.310888843554459782e-01
7.199999999999999734e-01 -4.169041633644561262e-01
7.299999999999999822e-01 -4.911847374099646557e-01
7.399999999999999911e-01 -5.534642899441487573e-01
7.500000000000000000e-01 -5.993621862654934240e-01
7.600000000000000089e-01 -6.291319694877657298e-01
7.700000000000000178e-01 -6.401590897915688805e-01
7.800000000000000266e-01 -6.329805042608976917e-01
7.900000000000000355e-01 -6.074318140179906234e-01
8.000000000000000444e-01 -5.641888317044689849e-01
8.100000000000000533e-01 -5.055185157595478707e-01
8.200000000000000622e-01 -4.323875096905560045e-01
8.300000000000000711e-01 -3.487793790518827208e-01
8.399999999999999689e-01 -2.563523386884384858e-01
8.499999999999999778e-01 -1.595250058739612897e-01
8.599999999999999867e-01 -6.123422209037054920e-02
8.699999999999999956e-01 3.493600013844771340e-02
8.800000000000000044e-01 1.252534212243081591e-01
8.900000000000000133e-01 2.070381103239896103e-01
9.000000000000000222e-01 2.770882613516505999e-01
9.100000000000000311e-01 3.332063506949347609e-01
9.200000000000000400e-01 3.739497986458355516e-01
9.300000000000000488e-01 3.973255644344900750e-01
9.400000000000000577e-01 4.043343193436423344e-01
9.500000000000000666e-01 3.931752532842938685e-01
9.599999999999999645e-01 3.672620232368358217e-01
9.699999999999999734e-01 3.252760355252335422e-01
9.799999999999999822e-01 2.719567390127388684e-01
9.899999999999999911e-01 2.080071413177796424e-01
1.000000000000000000e+00 1.375620848021388287e-01
1.010000000000000009e+00 6.314008051409861211e-02
1.020000000000000018e+00 -1.167446942575956458e-02
1.030000000000000027e+00 -8.380332608028394359e-02
1.040000000000000036e+00 -1.499244524928805278e-01
1.050000000000000044e+00 -2.077647364805143004e-01
1.060000000000000053e+00 -2.539918914743581890e-01
1.070000000000000062e+00 -2.882364373227548904e-01
1.080000000000000071e+00 -3.070609005739594055e-01
1.090000000000000080e+00 -3.123121274090303046e-01
1.100000000000000089e+00 -3.013361916434131871e-01
1.110000000000000098e+00 -2.771309735708435418e-01
1.120000000000000107e+00 -2.391482775031440744e-01
1.130000000000000115e+00 -1.903730046305180112e-01
1.140000000000000124e+00 -1.323553940971023968e-01
1.150000000000000133e+00 -6.803034977414940121e-02
1.159999999999999920e+00 -1.617046051723969313e-04
1.169999999999999929e+00 6.818451382490423041e-02
1.179999999999999938e+00 1.342628922580388628e-01
1.189999999999999947e+00 1.946199213808975370e-01
1.199999999999999956e+00 2.477772939048304979e-01
1.209999999999999964e+00 2.897288128462686685e-01
1.219999999999999973e+00 3.207617766211300347e-01
1.229999999999999982e+00 3.376884528857705958e-01
1.239999999999999991e+00 3.415354701899412371e-01
1.250000000000000000e+00 3.309896125983752824e-01
1.260000000000000009e+00 3.074079906700449283e-01
1.270000000000000018e+00 2.715715677585048837e-01
1.280000000000000027e+00 2.250723018898365679e-01
1.290000000000000036e+00 1.703324390224978668e-01
1.300000000000000044e+00 1.093175815538463685e-01
1.310000000000000053e+00 4.512379278232447194e-02
1.320000000000000062e+00 -1.963233765760727043e-02
1.330000000000000071e+00 -8.232960730849603337e-02
1.340000000000000080e+00 -1.396563553731041962e-01
1.350000000000000089e+00 -1.900788542455085495e-01
1.360000000000000098e+00 -2.305299352086818965e-01
1.370000000000000107e+00 -2.602036596086118037e-01
1.380000000000000115e+00 -2.773225046393592574e-01
1.390000000000000124e+00 -2.814971642416599917e-01
1.400000000000000133e+00 -2.728249666190871170e-01
1.409999999999999920e+00 -2.512110260254424299e-01
1.419999999999999929e+00 -2.186108928532729534e-01
1.429999999999999938e+00 -1.753294187756333777e-01
1.439999999999999947e+00 -1.245775235889045318e-01
1.449999999999999956e+00 -6.734870172613363626e-02
1.459999999999999964e+00 -7.045948423473068906e-03
1.469999999999999973e+00 5.419359939178115815e-02
1.479999999999999982e+00 1.137374912571817859e-01
1.489999999999999991e+00 1.689860588087891136e-01
1.500000000000000000e+00 2.178769498942505767e-01
1.510000000000000009e+00 2.584246690324073503e-01
1.520000000000000018e+00 2.888802755446853165e-01
1.530000000000000027e+00 3.087021226269190954e-01
1.540000000000000036e+00 3.163150299258666864e-01
1.550000000000000044e+00 3.129812280504771782e-01
1.560000000000000053e+00 2.973533794084000648e-01
1.570000000000000062e+00 2.721636816203003573e-01
1.580000000000000071e+00 2.369555999270049063e-01
1.590000000000000080e+00 1.948029774341348830e-01
1.600000000000000089e+00 1.467006023780168533e-01
1.610000000000000098e+00 9.529197071035681865e-02
1.620000000000000107e+00 4.250866776064976538e-02
1.630000000000000115e+00 -9.333975286421844139e-03
1.640000000000000124e+00 -5.831039748843309944e-02
1.650000000000000133e+00 -1.022612458388490464e-01
1.660000000000000142e+00 -1.401434263619695253e-01
1.669999999999999929e+00 -1.698339346886615919e-01
1.679999999999999938e+00 -1.917452896240783577e-01
1.689999999999999947e+00 -2.038178776920331059e-01
1.699999999999999956e+00 -2.077611393765443626e-01
1.709999999999999964e+00 -2.026132402637922936e-01
1.719999999999999973e+00 -1.902830394176033835e-01
1.729999999999999982e+00 -1.712346123511013785e-01
1.739999999999999991e+00 -1.473493419389335923e-01
1.750000000000000000e+00 -1.201033236850522906e-01
1.760000000000000009e+00 -9.137141538718701606e-02
1.770000000000000018e+00 -6.290865904625839167e-02
1.780000000000000027e+00 -3.669379149592378458e-02
1.790000000000000036e+00 -1.395503366770390122e-02
1.800000000000000044e+00 3.129889500923122708e-03
1.810000000000000053e+00 1.440274477039069946e-02
1.820000000000000062e+00 1.781528273115530817e-02
1.830000000000000071e+00 1.409031339618805820e-02
1.840000000000000080e+00 2.135913418234504889e-03
1.850000000000000089e+00 -1.704411161181055082e-02
1.860000000000000098e+00 -4.328335994618598415e-02
1.870000000000000107e+00 -7.542894336769145891e-02
1.880000000000000115e+00 -1.122820060252654323e-01
1.890000000000000124e+00 -1.525286317595438146e-01
1.900000000000000133e+00 -1.944950169089297021e-01
1.910000000000000142e+00 -2.366021460580197966e-01
1.919999999999999929e+00 -2.774204982225399463e-01
1.929999999999999938e+00 -3.149955204962522903e-01
1.939999999999999947e+00 -3.486445940506169294e-01
1.949999999999999956e+00 -3.765221091882298698e-01
1.959999999999999964e+00 -3.985038835105559341e-01
1.969999999999999973e+00 -4.134788929699711457e-01
1.979999999999999982e+00 -4.216374429540798441e-01
1.989999999999999991e+00 -4.229262184381304968e-01
2.000000000000000000e+00 -4.177329918234113371e-01
2.010000000000000231e+00 -4.070056488923213811e-01
2.020000000000000018e+00 -3.913273877794196665e-01
2.030000000000000249e+00 -3.722577101871637484e-01
2.040000000000000036e+00 -3.506544960739131911e-01
2.049999999999999822e+00 -3.280958775289674612e-01
2.060000000000000053e+00 -3.057936674294757795e-01
2.069999999999999840e+00 -2.848467706292000523e-01
2.080000000000000071e+00 -2.664928181347976932e-01
2.089999999999999858e+00 -2.513267872807254943e-01
2.100000000000000089e+00 -2.400984475790625960e-01
2.109999999999999876e+00 -2.330092405238933795e-01
2.120000000000000107e+00 -2.300007103835093047e-01
2.129999999999999893e+00 -2.309147090178584327e-01
2.140000000000000124e+00 -2.349000698633477990e-01
2.149999999999999911e+00 -2.413740149914500865e-01
2.160000000000000142e+00 -2.490426421606317942e-01
2.169999999999999929e+00 -2.567624487527109256e-01
2.180000000000000160e+00 -2.633047081670628065e-01
2.189999999999999947e+00 -2.670677569396031070e-01
2.200000000000000178e+00 -2.671359857330158349e-01
2.209999999999999964e+00 -2.619930003901162485e-01
2.220000000000000195e+00 -2.509546498975328555e-01
2.229999999999999982e+00 -2.331902183764220648e-01
2.240000000000000213e+00 -2.081902535393093390e-01
2.250000000000000000e+00 -1.761915680879646007e-01
2.260000000000000231e+00 -1.369014506251111929e-01
2.270000000000000018e+00 -9.165678194246237864e-02
2.280000000000000249e+00 -4.055652166457869578e-02
2.290000000000000036e+00 1.435705981648963125e-02
2.300000000000000266e+00 7.219371347357976532e-02
2.310000000000000053e+00 1.308950298389008615e-01
2.319999999999999840e+00 1.887344129233784196e-01
2.330000000000000071e+00 2.439181567267691975e-01
2.339999999999999858e+00 2.944955965500328232e-01
2.350000000000000089e+00 3.387819936525134912e-01
2.359999999999999876e+00 3.754010804208245955e-01
2.370000000000000107e+00 4.026299595499356898e-01
2.379999999999999893e+00 4.203210870878545946e-01
2.390000000000000124e+00 4.266702306382866294e-01
2.399999999999999911e+00 4.230852891590416998e-01
2.410000000000000142e+00 4.078061420108739510e-01
2.419999999999999929e+00 3.834061110574500941e-01
2.430000000000000160e+00 3.493182042092285444e-01
2.439999999999999947e+00 3.080394326659813831e-01
2.450000000000000178e+00 2.604631465608173713e-01
2.459999999999999964e+00 2.088636758374006752e-01
2.470000000000000195e+00 1.550477007912818561e-01
2.479999999999999982e+00 1.012011224893542560e-01
2.490000000000000213e+00 4.921740432039772850e-02
2.500000000000000000e+00 1.386169216414294067e-03
2.510000000000000231e+00 -4.115937933262568682e-02
2.520000000000000018e+00 -7.588319579399029069e-02
2.530000000000000249e+00 -1.029381538720180178e-01
2.540000000000000036e+00 -1.199082067453123707e-01
2.550000000000000266e+00 -1.279139718375011114e-01
2.560000000000000053e+00 -1.256597447540175327e-01
2.569999999999999840e+00 -1.144575102592736704e-01
2.580000000000000071e+00 -9.447307941876352533e-02
2.589999999999999858e+00 -6.708370850812099551e-02
2.600000000000000089e+00 -3.365660837278568185e-02
2.609999999999999876e+00 4.324612593532659900e-03
2.620000000000000107e+00 4.490436530390516656e-02
2.629999999999999893e+00 8.634343919658385436e-02
2.640000000000000124e+00 1.268923348848681742e-01
2.649999999999999911e+00 1.643934274072769708e-01
2.660000000000000142e+00 1.978927450432350355e-01
2.669999999999999929e+00 2.252598288017342021e-01
2.680000000000000160e+00 2.461963664528669105e-01
2.689999999999999947e+00 2.593043757921811299e-01
2.700000000000000178e+00 2.646481417197928954e-01
2.709999999999999964e+00 2.619887740596990588e-01
2.720000000000000195e+00 2.516120549700969766e-01
2.729999999999999982e+00 2.344579790311562828e-01
2.740000000000000213e+00 2.110354179985259870e-01
2.750000000000000000e+00 1.831029228589084179e-01
2.760000000000000231e+00 1.515112333241215858e-01
2.770000000000000018e+00 1.182012218944316628e-01
2.780000000000000249e+00 8.454403657821688012e-02
2.790000000000000036e+00 5.205357396378800655e-02
2.800000000000000266e+00 2.235018874966351876e-02
2.810000000000000053e+00 -3.554248272711999987e-03
2.819999999999999840e+00 -2.439984302487063772e-02
2.830000000000000071e+00 -3.951151168445301426e-02
2.839999999999999858e+00 -4.848776334750685979e-02
2.850000000000000089e+00 -5.089220870748379505e-02
2.859999999999999876e+00 -4.736477830173602133e-02
2.870000000000000107e+00 -3.772332708624832887e-02
2.879999999999999893e+00 -2.347415695521795631e-02
2.890000000000000124e+00 -4.816289757618233414e-03
2.899999999999999911e+00 1.640796407940548970e-02
2.910000000000000142e+00 3.928614584802389564e-02
2.919999999999999929e+00 6.227622786609263855e-02
2.930000000000000160e+00 8.403488580283771658e-02
2.939999999999999947e+00 1.033141879569099558e-01
2.950000000000000178e+00 1.189398658505273210e-01
2.959999999999999964e+00 1.298571447364629539e-01
2.970000000000000195e+00 1.355877955220086417e-01
2.979999999999999982e+00 1.352149366218328153e-01
2.990000000000000213e+00 1.292395711677343240e-01
3.000000000000000000e+00 1.169289257087831602e-01
3.010000000000000231e+00 9.965915642025628685e-02
3.020000000000000018e+00 7.721951986779514165e-02
3.030000000000000249e+00 5.129938319936652724e-02
3.040000000000000036e+00 2.255300298399209175e-02
3.050000000000000266e+00 -7.483939898180053119e-03
3.060000000000000053e+00 -3.758053504645832155e-02
3.070000000000000284e+00 -6.630864154107259101e-02
3.080000000000000071e+00 -9.244260335913682958e-02
3.089999999999999858e+00 -1.145689857384528665e-01
3.100000000000000089e+00 -1.320409637830403105e-01
3.109999999999999876e+00 -1.433979333666006994e-01
3.120000000000000107e+00 -1.489735597125243227e-01
3.129999999999999893e+00 -1.472940599279990992e-01
3.140000000000000124e+00 -1.395962182278972230e-01
3.149999999999999911e+00 -1.251183972759895846e-01
3.160000000000000142e+00 -1.052619996479677855e-01
3.169999999999999929e+00 -8.028610326298347977e-02
3.180000000000000160e+00 -5.156269420397537051e-02
3.189999999999999947e+00 -2.012788891339357955e-02
3.200000000000000178e+00 1.264558576210777358e-02
3.209999999999999964e+00 4.545136924598920658e-02
3.220000000000000195e+00 7.681954748686556367e-02
3.229999999999999982e+00 1.057624207575459663e-01
3.240000000000000213e+00 1.306221904103256060e-01
3.250000000000000000e+00 1.511717250439570670e-01
3.260000000000000231e+00 1.657470550249366403e-01
3.270000000000000018e+00 1.748081860981897384e-01
3.280000000000000249e+00 1.773418034035417201e-01
3.290000000000000036e+00 1.740202911803755692e-01
3.300000000000000266e+00 1.647784413353749755e-01
3.310000000000000053e+00 1.503912068825283554e-01
3.320000000000000284e+00 1.316414612301213261e-01
3.330000000000000071e+00 1.094061507001164307e-01
3.339999999999999858e+00 8.495093657354581274e-02
3.350000000000000089e+00 5.933221100008126414e-02
3.359999999999999876e+00 3.377801421030120210e-02
3.370000000000000107e+00 9.619332670944447106e-03
3.379999999999999893e+00 -1.238535664134061444e-02
3.390000000000000124e+00 -3.087294405706158748e-02
3.399999999999999911e+00 -4.555119896906248411e-02
3.410000000000000142e+00 -5.549162644992458593e-02
3.419999999999999929e+00 -6.068709195446417293e-02
3.430000000000000160e+00 -6.095278603576157611e-02
3.439999999999999947e+00 -5.647489230444151243e-02
3.450000000000000178e+00 -4.784312633893249289e-02
3.459999999999999964e+00 -3.543573291312784868e-02
3.470000000000000195e+00 -2.037955765541524591e-02
3.479999999999999982e+00 -3.318819585581737376e-03
3.490000000000000213e+00 1.451244106016076792e-02
3.500000000000000000e+00 3.211017343110564998e-02
3.510000000000000231e+00 4.853287622293753212e-02
3.520000000000000018e+00 6.264267940429532611e-02
3.530000000000000249e+00 7.383151634753044867e-02
3.540000000000000036e+00 8.126010697103777658e-02
3.550000000000000266e+00 8.455633409676656387e-02
3.560000000000000053e+00 8.351628783859268990e-02
3.570000000000000284e+00 7.795609477936465970e-02
3.580000000000000071e+00 6.841058409738649815e-02
3.589999999999999858e+00 5.491803458940373167e-02
3.600000000000000089e+00 3.859124196701743670e-02
3.609999999999999876e+00 1.980187280236862801e-02
3.620000000000000107e+00 -1.528094439077692197e-04
3.629999999999999893e+00 -2.039232218484809261e-02
3.640000000000000124e+00 -3.983799000597455786e-02
3.649999999999999911e+00 -5.736024718204255773e-02
3.660000000000000142e+00 -7.207747218864102301e-02
3.669999999999999929e+00 -8.307817149946794544e-02
3.680000000000000160e+00 -8.959659998053132179e-02
3.689999999999999947e+00 -9.133654747676263341e-02
3.700000000000000178e+00 -8.760979115067944745e-02
3.709999999999999964e+00 -7.893427644808481691e-02
3.720000000000000195e+00 -6.474448315257906594e-02
3.729999999999999982e+00 -4.626549983650447839e-02
3.740000000000000213e+00 -2.332733957973249367e-02
3.750000000000000000e+00 2.610459549651455297e-03
3.760000000000000231e+00 3.101777360282150647e-02
3.770000000000000018e+00 6.060768540502118468e-02
3.780000000000000249e+00 9.038188735215907377e-02
3.790000000000000036e+00 1.191776073616734877e-01
3.800000000000000266e+00 1.460018693207297269e-01
3.810000000000000053e+00 1.697332800231035332e-01
3.820000000000000284e+00 1.898423160378376051e-01
3.830000000000000071e+00 2.051932404563671375e-01
3.839999999999999858e+00 2.160342107538063272e-01
3.850000000000000089e+00 2.212363932866381888e-01
3.859999999999999876e+00 2.217652743433825013e-01
