# [DEFAULT]
# # input and output specifications
# dataformat = QA
# outputtype = gr
# 
# # PDF calculation setup
# mode = xray
# wavelength = 
# composition = Cl4.0Cr1.0Na1.0
# bgscale = 1.0
# rpoly = 0.9
# qmaxinst = 28
# qmin = 0.0
# qmax = 22
# rmin = 0.0
# rmax = 30.0
# rstep = 0.01
# 
# # End of config --------------------------------------------------------------
# 
# #### start data
# #S 1
# #L r(Å)  G(Å$^$)
# 
0.000000000000000000e+00 0.000000000000000000e+00
1.000000000000000021e-02 -2.198898342685385622e-03
2.000000000000000042e-02 -4.548706974691128606e-03
2.999999999999999889e-02 -7.221127238252092462e-03
4.000000000000000083e-02 -1.028012371943407520e-02
5.000000000000000278e-02 -1.380820534943543940e-02
5.999999999999999778e-02 -1.776283853427343060e-02
7.000000000000000666e-02 -2.206553553765959116e-02
8.000000000000000167e-02 -2.654713187695750473e-02
8.999999999999999667e-02 -3.098593437797388106e-02
1.000000000000000056e-01 -3.506016883221451524e-02
1.100000000000000006e-01 -3.851860687286053769e-02
1.199999999999999956e-01 -4.086510665282769295e-02
1.300000000000000044e-01 -4.196654125550454417e-02
1.400000000000000133e-01 -4.124558429979687663e-02
1.499999999999999944e-01 -3.872327458889845281e-02
1.600000000000000033e-01 -3.398969371144655582e-02
1.700000000000000122e-01 -2.716379659400096347e-02
1.799999999999999933e-01 -1.818567057714672031e-02
1.900000000000000022e-01 -7.292563936207753852e-03
2.000000000000000111e-01 5.179506180066910555e-03
2.099999999999999922e-01 1.881690515687457765e-02
2.200000000000000011e-01 3.300073452769391319e-02
2.300000000000000100e-01 4.704932512243973491e-02
2.399999999999999911e-01 6.032554849220416598e-02
2.500000000000000000e-01 7.178320495815367075e-02
2.600000000000000089e-01 8.101510249668390784e-02
2.700000000000000178e-01 8.688291389240530849e-02
2.800000000000000266e-01 8.914988991141616081e-02
2.899999999999999800e-01 8.698561620089881319e-02
2.999999999999999889e-01 8.028194807874834693e-02
3.099999999999999978e-01 6.883695185562457852e-02
3.200000000000000067e-01 5.268690386359178857e-02
3.300000000000000155e-01 3.239013103913680747e-02
3.400000000000000244e-01 8.232171526238563075e-03
3.500000000000000333e-01 -1.859913278843914469e-02
3.599999999999999867e-01 -4.737288246891943611e-02
3.699999999999999956e-01 -7.666108162735599252e-02
3.800000000000000044e-01 -1.050767188532262114e-01
3.900000000000000133e-01 -1.313564536199041677e-01
4.000000000000000222e-01 -1.537293727728681614e-01
4.100000000000000311e-01 -1.710954296308449807e-01
4.199999999999999845e-01 -1.819143265052362568e-01
4.299999999999999933e-01 -1.851380233385229723e-01
4.400000000000000022e-01 -1.800804704116763799e-01
4.500000000000000111e-01 -1.657059591464888348e-01
4.600000000000000200e-01 -1.425988923000628406e-01
4.700000000000000289e-01 -1.098420445278717739e-01
4.799999999999999822e-01 -6.934721895898492139e-02
4.899999999999999911e-01 -2.060562615160587557e-02
5.000000000000000000e-01 3.367814479966710350e-02
5.100000000000000089e-01 9.268478857233333756e-02
5.200000000000000178e-01 1.538926705429124187e-01
5.300000000000000266e-01 2.152992777095663057e-01
5.400000000000000355e-01 2.744481790472673710e-01
5.500000000000000444e-01 3.289839850221294992e-01
5.600000000000000533e-01 3.762843177285811191e-01
5.700000000000000622e-01 4.146453912680223008e-01
5.799999999999999600e-01 4.410697355048038282e-01
5.899999999999999689e-01 4.554271679553813512e-01
5.999999999999999778e-01 4.542864365315613662e-01
6.099999999999999867e-01 4.394238448513327344e-01
6.199999999999999956e-01 4.079288806388007838e-01
6.300000000000000044e-01 3.625494286471752092e-01
6.400000000000000133e-01 3.023288929357513810e-01
6.500000000000000222e-01 2.299872921547099214e-01
6.600000000000000311e-01 1.467390192677822114e-01
6.700000000000000400e-01 5.533230705853057346e-02
6.800000000000000488e-01 -4.150041894945862009e-02
6.900000000000000577e-01 -1.407046912391345383e-01
7.000000000000000666e-01 -2.391524387188752043e-01
7.099999999999999645e-01 -3.330919122149192946e-01
7.199999999999999734e-01 -4.203406419999716204e-01
7.299999999999999822e-01 -4.961035263297667863e-01
7.399999999999999911e-01 -5.598698804459246725e-01
7.500000000000000000e-01 -6.072191473537278394e-01
7.600000000000000089e-01 -6.383710925909503731e-01
7.700000000000000178e-01 -6.506683254988928633e-01
7.800000000000000266e-01 -6.446192991847730092e-01
7.900000000000000355e-01 -6.200288511395312119e-01
8.000000000000000444e-01 -5.775443972037870299e-01
8.100000000000000533e-01 -5.194257155426081907e-01
8.200000000000000622e-01 -4.466079150629844730e-01
8.300000000000000711e-01 -3.630966171683487342e-01
8.399999999999999689e-01 -2.705150373653363305e-01
8.499999999999999778e-01 -1.733284689352918018e-01
8.599999999999999867e-01 -7.444829295994007112e-02
8.699999999999999956e-01 2.249004636668045995e-02
8.800000000000000044e-01 1.137555365558590159e-01
8.900000000000000133e-01 1.966264932926944653e-01
9.000000000000000222e-01 2.678813897313473413e-01
9.100000000000000311e-01 3.252888603028471493e-01
9.200000000000000400e-01 3.673767471373069471e-01
9.300000000000000488e-01 3.921225568097414516e-01
9.400000000000000577e-01 4.004993375292862923e-01
9.500000000000000666e-01 3.906773706273551916e-01
9.599999999999999645e-01 3.660546491213445552e-01
9.699999999999999734e-01 3.252813304021138774e-01
9.799999999999999822e-01 2.730962380082938012e-01
9.899999999999999911e-01 2.101774008152100526e-01
1.000000000000000000e+00 1.406652371275365354e-01
1.010000000000000009e+00 6.706631567066269339e-02
1.020000000000000018e+00 -7.027721312140696765e-03
1.030000000000000027e+00 -7.853629633092873430e-02
1.040000000000000036e+00 -1.441304551764021336e-01
1.050000000000000044e+00 -2.015231219581900546e-01
1.060000000000000053e+00 -2.473754543364536929e-01
1.070000000000000062e+00 -2.812975711626956588e-01
1.080000000000000071e+00 -2.998445079596389062e-01
1.090000000000000080e+00 -3.048426790090804084e-01
1.100000000000000089e+00 -2.936272775502897781e-01
1.110000000000000098e+00 -2.691810579545687032e-01
1.120000000000000107e+00 -2.309428621572364448e-01
1.130000000000000115e+00 -1.818875355951750927e-01
1.140000000000000124e+00 -1.235545355231211784e-01
1.150000000000000133e+00 -5.887124190004458524e-02
1.159999999999999920e+00 9.403562638817662689e-03
1.169999999999999929e+00 7.821067236793266542e-02
1.179999999999999938e+00 1.448022473984383329e-01
1.189999999999999947e+00 2.057316320739278337e-01
1.199999999999999956e+00 2.595106526552614090e-01
1.209999999999999964e+00 3.021394526739115682e-01
1.219999999999999973e+00 3.338909436905074246e-01
1.229999999999999982e+00 3.515775106479057666e-01
1.239999999999999991e+00 3.562126351330354157e-01
1.250000000000000000e+00 3.464760016879780968e-01
1.260000000000000009e+00 3.237119040463192765e-01
1.270000000000000018e+00 2.886894464173922481e-01
1.280000000000000027e+00 2.429857865930746541e-01
1.290000000000000036e+00 1.890104170034084541e-01
1.300000000000000044e+00 1.287091208106495299e-01
1.310000000000000053e+00 6.516930503563735100e-02
1.320000000000000062e+00 9.794831867835085415e-04
1.330000000000000071e+00 -6.123969741924127630e-02
1.340000000000000080e+00 -1.182105406679864745e-01
1.350000000000000089e+00 -1.683947666031195278e-01
1.360000000000000098e+00 -2.087541215842409759e-01
1.370000000000000107e+00 -2.384803030048574801e-01
1.380000000000000115e+00 -2.558118197711743980e-01
1.390000000000000124e+00 -2.603605263904225087e-01
1.400000000000000133e+00 -2.522224270351645092e-01
1.409999999999999920e+00 -2.313068454413021169e-01
1.419999999999999929e+00 -1.995493365006309749e-01
1.429999999999999938e+00 -1.572592749637206078e-01
1.439999999999999947e+00 -1.076118364747198630e-01
1.449999999999999956e+00 -5.160034698848928875e-02
1.459999999999999964e+00 7.414468671256229867e-03
1.469999999999999973e+00 6.731207020712517974e-02
1.479999999999999982e+00 1.254961920170969136e-01
1.489999999999999991e+00 1.793970981530365882e-01
1.500000000000000000e+00 2.269851882446951574e-01
1.510000000000000009e+00 2.663064816329083206e-01
1.520000000000000018e+00 2.956452629060626891e-01
1.530000000000000027e+00 3.144799582593342802e-01
1.540000000000000036e+00 3.212719426206251949e-01
1.550000000000000044e+00 3.172810953454819338e-01
1.560000000000000053e+00 3.012002197525263658e-01
1.570000000000000062e+00 2.757336970886242189e-01
1.580000000000000071e+00 2.404567328321629005e-01
1.590000000000000080e+00 1.984025350461803838e-01
1.600000000000000089e+00 1.505711714901654119e-01
1.610000000000000098e+00 9.956620741145234821e-02
1.620000000000000107e+00 4.729715572012695157e-02
1.630000000000000115e+00 -3.961140530582541591e-03
1.640000000000000124e+00 -5.232161307570221132e-02
1.650000000000000133e+00 -9.566963128332017785e-02
1.660000000000000142e+00 -1.330003793520986577e-01
1.669999999999999929e+00 -1.622440111251837180e-01
1.679999999999999938e+00 -1.838327537110195364e-01
1.689999999999999947e+00 -1.957708321742556157e-01
1.699999999999999956e+00 -1.997606520101445904e-01
1.709999999999999964e+00 -1.948918196775602518e-01
1.719999999999999973e+00 -1.830545053938427702e-01
1.729999999999999982e+00 -1.647327367606443715e-01
1.739999999999999991e+00 -1.417823527161723440e-01
1.750000000000000000e+00 -1.156625689171826149e-01
1.760000000000000009e+00 -8.821486386899271559e-02
1.770000000000000018e+00 -6.114769735734770784e-02
1.780000000000000027e+00 -3.639344027158124967e-02
1.790000000000000036e+00 -1.512230805296697032e-02
1.800000000000000044e+00 5.548547331890832553e-04
1.810000000000000053e+00 1.052615367689842957e-02
1.820000000000000062e+00 1.282979183014562943e-02
1.830000000000000071e+00 8.212845945053412131e-03
1.840000000000000080e+00 -4.337482069592540207e-03
1.850000000000000089e+00 -2.380527668439660557e-02
1.860000000000000098e+00 -4.998018200850752601e-02
1.870000000000000107e+00 -8.170558297633880029e-02
1.880000000000000115e+00 -1.177906715432188861e-01
1.890000000000000124e+00 -1.569282154894111048e-01
1.900000000000000133e+00 -1.975056275012092022e-01
1.910000000000000142e+00 -2.379703518347316138e-01
1.919999999999999929e+00 -2.769901685200685248e-01
1.929999999999999938e+00 -3.126726371751331612e-01
1.939999999999999947e+00 -3.444381121564160653e-01
1.949999999999999956e+00 -3.705478627538896230e-01
1.959999999999999964e+00 -3.909658369957462742e-01
1.969999999999999973e+00 -4.047040804326107466e-01
1.979999999999999982e+00 -4.120351788097167400e-01
1.989999999999999991e+00 -4.130008252826518067e-01
2.000000000000000000e+00 -4.080744236920483270e-01
2.010000000000000231e+00 -3.982306238188575986e-01
2.020000000000000018e+00 -3.841443362744398904e-01
2.030000000000000249e+00 -3.673088874104356027e-01
2.040000000000000036e+00 -3.486713744718170638e-01
2.049999999999999822e+00 -3.296584542022469866e-01
2.060000000000000053e+00 -3.115224061367199426e-01
2.069999999999999840e+00 -2.951798343025172078e-01
2.080000000000000071e+00 -2.818109123370888258e-01
2.089999999999999858e+00 -2.718384575982546458e-01
2.100000000000000089e+00 -2.658752079958942027e-01
2.109999999999999876e+00 -2.639470728363811913e-01
2.120000000000000107e+00 -2.658352665572319973e-01
2.129999999999999893e+00 -2.711826571267280661e-01
2.140000000000000124e+00 -2.790229347692547712e-01
2.149999999999999911e+00 -2.885321400131874992e-01
2.160000000000000142e+00 -2.984118266675803710e-01
2.169999999999999929e+00 -3.072266916333450948e-01
2.180000000000000160e+00 -3.138643644845587333e-01
2.189999999999999947e+00 -3.164979721976859395e-01
2.200000000000000178e+00 -3.143511952095618955e-01
2.209999999999999964e+00 -3.058280835251671603e-01
2.220000000000000195e+00 -2.903835034963658801e-01
2.229999999999999982e+00 -2.672640867551706045e-01
2.240000000000000213e+00 -2.361062725500750747e-01
2.250000000000000000e+00 -1.973470847838226239e-01
2.260000000000000231e+00 -1.508718170906858114e-01
2.270000000000000018e+00 -9.826945575795863197e-02
2.280000000000000249e+00 -3.988647112381892013e-02
2.290000000000000036e+00 2.201849913820291132e-02
2.300000000000000266e+00 8.622196914441432325e-02
2.310000000000000053e+00 1.505282490171986620e-01
2.319999999999999840e+00 2.128744344366210739e-01
2.330000000000000071e+00 2.713657971724245388e-01
2.339999999999999858e+00 3.238140003624665475e-01
2.350000000000000089e+00 3.684370892639748929e-01
2.359999999999999876e+00 4.037956107471616929e-01
2.370000000000000107e+00 4.280575448657888971e-01
2.379999999999999893e+00 4.412211423855429970e-01
2.390000000000000124e+00 4.413696428835382490e-01
2.399999999999999911e+00 4.302491394038800432e-01
2.410000000000000142e+00 4.060182445934570339e-01
2.419999999999999929e+00 3.716868689165234718e-01
2.430000000000000160e+00 3.267728459303987920e-01
2.439999999999999947e+00 2.741536746891426457e-01
2.450000000000000178e+00 2.149677937789057913e-01
2.459999999999999964e+00 1.518257410079697223e-01
2.470000000000000195e+00 8.683777060152472749e-02
2.479999999999999982e+00 2.252395115277321114e-02
2.490000000000000213e+00 -3.898025796419933575e-02
2.500000000000000000e+00 -9.500992227786811406e-02
2.510000000000000231e+00 -1.443605379638304154e-01
2.520000000000000018e+00 -1.840490323398571992e-01
2.530000000000000249e+00 -2.143781220410612975e-01
2.540000000000000036e+00 -2.324833981685842932e-01
2.550000000000000266e+00 -2.397606653684770939e-01
2.560000000000000053e+00 -2.346501385996527522e-01
2.569999999999999840e+00 -2.187108656784390592e-01
2.580000000000000071e+00 -1.920888254934943473e-01
2.589999999999999858e+00 -1.563669079066828393e-01
2.600000000000000089e+00 -1.131057500346111383e-01
2.609999999999999876e+00 -6.396691967971697423e-02
2.620000000000000107e+00 -1.123688056803098106e-02
2.629999999999999893e+00 4.316069427900803834e-02
2.640000000000000124e+00 9.711217038268217527e-02
2.649999999999999911e+00 1.482250533589394570e-01
2.660000000000000142e+00 1.952490614016885728e-01
2.669999999999999929e+00 2.357589387284123317e-01
2.680000000000000160e+00 2.692622716091059853e-01
2.689999999999999947e+00 2.940844667716526195e-01
2.700000000000000178e+00 3.101487898189636550e-01
2.709999999999999964e+00 3.170446342556093589e-01
2.720000000000000195e+00 3.149275266309826682e-01
2.729999999999999982e+00 3.047237298014125462e-01
2.740000000000000213e+00 2.867968383437285440e-01
2.750000000000000000e+00 2.630626024407081154e-01
2.760000000000000231e+00 2.342044142507733184e-01
2.770000000000000018e+00 2.024513611199857122e-01
2.780000000000000249e+00 1.690402104275109119e-01
2.790000000000000036e+00 1.357896147112281349e-01
2.800000000000000266e+00 1.043010173973512866e-01
2.810000000000000053e+00 7.581192089846761073e-02
2.819999999999999840e+00 5.166004064748679070e-02
2.830000000000000071e+00 3.267598474962701144e-02
2.839999999999999858e+00 1.938061912780062596e-02
2.850000000000000089e+00 1.231086370969509264e-02
2.859999999999999876e+00 1.094028453783414678e-02
2.870000000000000107e+00 1.551086361650010591e-02
2.879999999999999893e+00 2.459424557707618267e-02
2.890000000000000124e+00 3.801971165808618047e-02
2.899999999999999911e+00 5.397889409999207661e-02
2.910000000000000142e+00 7.156162691069777038e-02
2.919999999999999929e+00 8.922438930984825933e-02
2.930000000000000160e+00 1.056045995775438118e-01
2.939999999999999947e+00 1.194341805786269667e-01
2.950000000000000178e+00 1.295122354487069916e-01
2.959999999999999964e+00 1.347568860519594014e-01
2.970000000000000195e+00 1.346764753347909627e-01
2.979999999999999982e+00 1.283299605376998498e-01
2.990000000000000213e+00 1.162348173326030742e-01
3.000000000000000000e+00 9.764953064552323037e-02
3.010000000000000231e+00 7.399944155092819109e-02
3.020000000000000018e+00 4.510126389299470850e-02
3.030000000000000249e+00 1.271335899798255176e-02
3.040000000000000036e+00 -2.243479982391724525e-02
3.050000000000000266e+00 -5.872534424451086171e-02
3.060000000000000053e+00 -9.482108819492782170e-02
3.070000000000000284e+00 -1.291894547772706181e-01
3.080000000000000071e+00 -1.605034329473823407e-01
3.089999999999999858e+00 -1.872103220701470672e-01
3.100000000000000089e+00 -2.086111483570994296e-01
3.109999999999999876e+00 -2.230596099277425970e-01
3.120000000000000107e+00 -2.309285789598557459e-01
3.129999999999999893e+00 -2.305069323093134892e-01
3.140000000000000124e+00 -2.231608874434535261e-01
3.149999999999999911e+00 -2.079367061213283630e-01
3.160000000000000142e+00 -1.863670038196698631e-01
3.169999999999999929e+00 -1.586290193415645366e-01
3.180000000000000160e+00 -1.262037065195918406e-01
3.189999999999999947e+00 -9.016443647210259371e-02
3.200000000000000178e+00 -5.197377532653418147e-02
3.209999999999999964e+00 -1.307260827621564009e-02
3.220000000000000195e+00 2.498394161028502647e-02
3.229999999999999982e+00 6.101994230307166561e-02
3.240000000000000213e+00 9.327449364046005997e-02
3.250000000000000000e+00 1.213353077877282887e-01
3.260000000000000231e+00 1.433932904643725470e-01
3.270000000000000018e+00 1.597712363358101406e-01
3.280000000000000249e+00 1.692895132270963721e-01
3.290000000000000036e+00 1.725242080798340683e-01
3.300000000000000266e+00 1.692734344621519837e-01
3.310000000000000053e+00 1.602318833053929525e-01
3.320000000000000284e+00 1.461195819037624244e-01
3.330000000000000071e+00 1.277312935570319996e-01
3.339999999999999858e+00 1.063674110518537108e-01
3.350000000000000089e+00 8.299272499311270701e-02
3.359999999999999876e+00 5.896777244691989162e-02
3.370000000000000107e+00 3.552628728123408131e-02
3.379999999999999893e+00 1.361724860571797598e-02
3.390000000000000124e+00 -5.432125912870447090e-03
3.399999999999999911e+00 -2.116569223730109875e-02
3.410000000000000142e+00 -3.261522235508938772e-02
3.419999999999999929e+00 -3.964599535791970414e-02
3.430000000000000160e+00 -4.198859684303234835e-02
3.439999999999999947e+00 -3.972734750594601044e-02
3.450000000000000178e+00 -3.336106617442583661e-02
3.459999999999999964e+00 -2.317871411505276896e-02
3.470000000000000195e+00 -1.024362611500208818e-02
3.479999999999999982e+00 4.888024998416073269e-03
3.490000000000000213e+00 2.099894915358406500e-02
3.500000000000000000e+00 3.716926669371507785e-02
3.510000000000000231e+00 5.243682488585982987e-02
3.520000000000000018e+00 6.571728190174544459e-02
3.530000000000000249e+00 7.637434288603910104e-02
3.540000000000000036e+00 8.358156870019449458e-02
3.550000000000000266e+00 8.694162751086655094e-02
3.560000000000000053e+00 8.622871995331202188e-02
3.570000000000000284e+00 8.124175946197363662e-02
3.580000000000000071e+00 7.247210166305738388e-02
3.589999999999999858e+00 5.995026173942623327e-02
3.600000000000000089e+00 4.473881189119629370e-02
3.609999999999999876e+00 2.721142339951449288e-02
3.620000000000000107e+00 8.622749360768650062e-03
3.629999999999999893e+00 -1.014249808718883927e-02
3.640000000000000124e+00 -2.802738041056379234e-02
3.649999999999999911e+00 -4.389564301653194056e-02
3.660000000000000142e+00 -5.686881188277369964e-02
3.669999999999999929e+00 -6.602566122755193501e-02
3.680000000000000160e+00 -7.058851244540578773e-02
3.689999999999999947e+00 -7.025348646746334969e-02
3.700000000000000178e+00 -6.430793609780335873e-02
3.709999999999999964e+00 -5.327307956027778346e-02
3.720000000000000195e+00 -3.654951438962760618e-02
3.729999999999999982e+00 -1.538324830092565633e-02
3.740000000000000213e+00 1.042809990761192976e-02
3.750000000000000000e+00 3.939143782943944211e-02
3.760000000000000231e+00 7.098643879946139879e-02
3.770000000000000018e+00 1.038905309078435729e-01
3.780000000000000249e+00 1.370861621457887536e-01
3.790000000000000036e+00 1.693689942118584424e-01
3.800000000000000266e+00 1.997039605223569492e-01
3.810000000000000053e+00 2.269150022054509386e-01
3.820000000000000284e+00 2.504227607322256910e-01
3.830000000000000071e+00 2.690137199455683303e-01
3.839999999999999858e+00 2.829004281796912434e-01
3.850000000000000089e+00 2.908420347460280997e-01
3.859999999999999876e+00 2.937962181860688249e-01
