# [DEFAULT]
# # input and output specifications
# dataformat = QA
# outputtype = gr
# 
# # PDF calculation setup
# mode = xray
# wavelength = 
# composition = Cl4.0Cr1.0Na1.0
# bgscale = 1.0
# rpoly = 0.9
# qmaxinst = 28
# qmin = 0.0
# qmax = 22
# rmin = 0.0
# rmax = 30.0
# rstep = 0.01
# 
# # End of config --------------------------------------------------------------
# 
# #### start data
# #S 1
# #L r(Å)  G(Å$^$)
# 
0.000000000000000000e+00 0.000000000000000000e+00
1.000000000000000021e-02 -4.199150431728837160e-03
2.000000000000000042e-02 -8.440959137470095686e-03
2.999999999999999889e-02 -1.276543385431320489e-02
4.000000000000000083e-02 -1.716879418179225250e-02
5.000000000000000278e-02 -2.162756242040410337e-02
5.999999999999999778e-02 -2.606246857283898294e-02
7.000000000000000666e-02 -3.035810594045814173e-02
8.000000000000000167e-02 -3.433387755264121627e-02
8.999999999999999667e-02 -3.781658384942648138e-02
1.000000000000000056e-01 -4.050066881106262340e-02
1.100000000000000006e-01 -4.225270513208907036e-02
1.199999999999999956e-01 -4.263067773037562680e-02
1.300000000000000044e-01 -4.164392987035199500e-02
1.400000000000000133e-01 -3.882147085992704305e-02
1.499999999999999944e-01 -3.430287673238120033e-02
1.600000000000000033e-01 -2.781009587994583143e-02
1.700000000000000122e-01 -1.954852012054357491e-02
1.799999999999999933e-01 -9.561187338123574783e-03
1.900000000000000022e-01 1.853561769440100274e-03
2.000000000000000111e-01 1.433169727562823986e-02
2.099999999999999922e-01 2.742212120525793981e-02
2.200000000000000011e-01 4.057101737196217722e-02
2.300000000000000100e-01 5.309049776407984839e-02
2.399999999999999911e-01 6.448462707929468463e-02
2.500000000000000000e-01 7.374874062326941537e-02
2.600000000000000089e-01 8.064255746198648045e-02
2.700000000000000178e-01 8.414060449103497041e-02
2.800000000000000266e-01 8.414532407306497819e-02
2.899999999999999800e-01 7.996960174985369429e-02
2.999999999999999889e-01 7.162008037881081868e-02
3.099999999999999978e-01 5.900237184551140879e-02
3.200000000000000067e-01 4.224714269562038216e-02
3.300000000000000155e-01 2.193071745067318862e-02
3.400000000000000244e-01 -1.591366868130011762e-03
3.500000000000000333e-01 -2.722522351891690576e-02
3.599999999999999867e-01 -5.421156985247949783e-02
3.699999999999999956e-01 -8.130290202469112049e-02
3.800000000000000044e-01 -1.071721030592926172e-01
3.900000000000000133e-01 -1.307555065800100891e-01
4.000000000000000222e-01 -1.504397193647181996e-01
4.100000000000000311e-01 -1.653123071203571048e-01
4.199999999999999845e-01 -1.740271139161965464e-01
4.299999999999999933e-01 -1.757190338086342674e-01
4.400000000000000022e-01 -1.698452241846499233e-01
4.500000000000000111e-01 -1.555538274127318266e-01
4.600000000000000200e-01 -1.334439212902994998e-01
4.700000000000000289e-01 -1.027748669129202458e-01
4.799999999999999822e-01 -6.530340837100062634e-02
4.899999999999999911e-01 -2.065893987125315412e-02
5.000000000000000000e-01 2.873953682659860856e-02
5.100000000000000089e-01 8.210360373291006320e-02
5.200000000000000178e-01 1.372073089658587541e-01
5.300000000000000266e-01 1.922577045526268624e-01
5.400000000000000355e-01 2.451109710264250396e-01
5.500000000000000444e-01 2.937131520386373484e-01
5.600000000000000533e-01 3.357982900348697730e-01
5.700000000000000622e-01 3.699279031592657141e-01
5.799999999999999600e-01 3.935358487201171540e-01
5.899999999999999689e-01 4.065839379144420840e-01
5.999999999999999778e-01 4.061647086259762562e-01
6.099999999999999867e-01 3.938993768569888920e-01
6.199999999999999956e-01 3.673723270554869469e-01
6.300000000000000044e-01 3.290308039020578557e-01
6.400000000000000133e-01 2.781657124791288571e-01
6.500000000000000222e-01 2.171885910345189852e-01
6.600000000000000311e-01 1.472430971806254485e-01
6.700000000000000400e-01 7.075991746980052344e-02
6.800000000000000488e-01 -9.866922497072473652e-03
6.900000000000000577e-01 -9.194635393498731823e-02
7.000000000000000666e-01 -1.728262378854063808e-01
7.099999999999999645e-01 -2.492266678384177370e-01
7.199999999999999734e-01 -3.193943808502615056e-01
7.299999999999999822e-01 -3.791840294798783373e-01
7.399999999999999911e-01 -4.283322698096658221e-01
7.500000000000000000e-01 -4.631065318659152164e-01
7.600000000000000089e-01 -4.838656779935265884e-01
7.700000000000000178e-01 -4.884753700287152167e-01
7.800000000000000266e-01 -4.775484411047419830e-01
7.900000000000000355e-01 -4.510953030617361748e-01
8.000000000000000444e-01 -4.098758808015302568e-01
8.100000000000000533e-01 -3.559689922610216328e-01
8.200000000000000622e-01 -2.904325268304842611e-01
8.300000000000000711e-01 -2.167335858877068311e-01
8.399999999999999689e-01 -1.365875377089153242e-01
8.499999999999999778e-01 -5.371198771724042947e-02
8.599999999999999867e-01 2.907374096508036007e-02
8.699999999999999956e-01 1.088375707191629460e-01
8.800000000000000044e-01 1.821915578137560388e-01
8.900000000000000133e-01 2.469697733409570994e-01
9.000000000000000222e-01 3.004032327077921227e-01
9.100000000000000311e-01 3.407264357121845277e-01
9.200000000000000400e-01 3.668357610840752292e-01
9.300000000000000488e-01 3.771420213075925565e-01
9.400000000000000577e-01 3.727470730647177155e-01
9.500000000000000666e-01 3.522574401047924297e-01
9.599999999999999645e-01 3.188762987324226250e-01
9.699999999999999734e-01 2.716928492952221941e-01
9.799999999999999822e-01 2.149988340684270693e-01
9.899999999999999911e-01 1.496773821814811334e-01
1.000000000000000000e+00 7.943410901225969600e-02
1.010000000000000009e+00 6.688787732342105219e-03
1.020000000000000018e+00 -6.535751702809569630e-02
1.030000000000000027e+00 -1.339123324308869045e-01
1.040000000000000036e+00 -1.960056185849066712e-01
1.050000000000000044e+00 -2.497001638746905172e-01
1.060000000000000053e+00 -2.920142493117667826e-01
1.070000000000000062e+00 -3.228228404403698515e-01
1.080000000000000071e+00 -3.390641084243622982e-01
1.090000000000000080e+00 -3.426457866334263747e-01
1.100000000000000089e+00 -3.312668560752426439e-01
1.110000000000000098e+00 -3.078353489769538043e-01
1.120000000000000107e+00 -2.720029700981397847e-01
1.130000000000000115e+00 -2.266137252357439402e-01
1.140000000000000124e+00 -1.732126268961681481e-01
1.150000000000000133e+00 -1.145698990544457008e-01
1.159999999999999920e+00 -5.326898156759539427e-02
1.169999999999999929e+00 7.811659640094888862e-03
1.179999999999999938e+00 6.619925075421091709e-02
1.189999999999999947e+00 1.186681500649768572e-01
1.199999999999999956e+00 1.639942366529559548e-01
1.209999999999999964e+00 1.984619765313466733e-01
1.219999999999999973e+00 2.225105446864624192e-01
1.229999999999999982e+00 2.332460780664671329e-01
1.239999999999999991e+00 2.317612868165568329e-01
1.250000000000000000e+00 2.169457822780593015e-01
1.260000000000000009e+00 1.901758324769133590e-01
1.270000000000000018e+00 1.522832477712323107e-01
1.280000000000000027e+00 1.048553716022099236e-01
1.290000000000000036e+00 5.020412201794385160e-02
1.300000000000000044e+00 -9.728653471484202675e-03
1.310000000000000053e+00 -7.207849530921200953e-02
1.320000000000000062e+00 -1.342832670245823479e-01
1.330000000000000071e+00 -1.939950745087478390e-01
1.340000000000000080e+00 -2.480205492079851082e-01
1.350000000000000089e+00 -2.950511688532341803e-01
1.360000000000000098e+00 -3.321870749603284545e-01
1.370000000000000107e+00 -3.587779408319817231e-01
1.380000000000000115e+00 -3.731945590613237052e-01
1.390000000000000124e+00 -3.751556027950879724e-01
1.400000000000000133e+00 -3.648266639420973956e-01
1.409999999999999920e+00 -3.421900409546986821e-01
1.419999999999999929e+00 -3.091624019574277238e-01
1.429999999999999938e+00 -2.661008960691542691e-01
1.439999999999999947e+00 -2.160813662312391914e-01
1.449999999999999956e+00 -1.601191997548952195e-01
1.459999999999999964e+00 -1.014383524781743151e-01
1.469999999999999973e+00 -4.212653552749672653e-02
1.479999999999999982e+00 1.533260002630328078e-02
1.489999999999999991e+00 6.843834145082522413e-02
1.500000000000000000e+00 1.152447216019541892e-01
1.510000000000000009e+00 1.538622065773266878e-01
1.520000000000000018e+00 1.826332619158781423e-01
1.530000000000000027e+00 2.010646450837014210e-01
1.540000000000000036e+00 2.076539561773044773e-01
1.550000000000000044e+00 2.036415635084500575e-01
1.560000000000000053e+00 1.877351071186700304e-01
1.570000000000000062e+00 1.625836066787072764e-01
1.580000000000000071e+00 1.277486509347979804e-01
1.590000000000000080e+00 8.620209912109023931e-02
1.600000000000000089e+00 3.890565394418097483e-02
1.610000000000000098e+00 -1.158452476516677598e-02
1.620000000000000107e+00 -6.339757512364438408e-02
1.630000000000000115e+00 -1.142872716864102994e-01
1.640000000000000124e+00 -1.623800722871532598e-01
1.650000000000000133e+00 -2.055663947396749736e-01
1.660000000000000142e+00 -2.428185426174860051e-01
1.669999999999999929e+00 -2.720406426978657644e-01
1.679999999999999938e+00 -2.936148260645951580e-01
1.689999999999999947e+00 -3.054779735798637263e-01
1.699999999999999956e+00 -3.092775809494680006e-01
1.709999999999999964e+00 -3.040038526694427423e-01
1.719999999999999973e+00 -2.914978092554088573e-01
1.729999999999999982e+00 -2.721459996272005410e-01
1.739999999999999991e+00 -2.477604699535253530e-01
1.750000000000000000e+00 -2.197445944161215414e-01
1.760000000000000009e+00 -1.899023667062117726e-01
1.770000000000000018e+00 -1.599567202475541960e-01
1.780000000000000027e+00 -1.318150646071417631e-01
1.790000000000000036e+00 -1.067380280736048292e-01
1.800000000000000044e+00 -8.683740617774254877e-02
1.810000000000000053e+00 -7.236539060517734046e-02
1.820000000000000062e+00 -6.533795331768503523e-02
1.830000000000000071e+00 -6.514765614607544164e-02
1.840000000000000080e+00 -7.291414414020490342e-02
1.850000000000000089e+00 -8.773516890491263320e-02
1.860000000000000098e+00 -1.095121057506666384e-01
1.870000000000000107e+00 -1.371767326474703230e-01
1.880000000000000115e+00 -1.695968261468800420e-01
1.890000000000000124e+00 -2.055231802147613196e-01
1.900000000000000133e+00 -2.433092409253312105e-01
1.910000000000000142e+00 -2.814119559896005596e-01
1.919999999999999929e+00 -3.183699558284228681e-01
1.929999999999999938e+00 -3.522172057962206226e-01
1.939999999999999947e+00 -3.821894729872498120e-01
1.949999999999999956e+00 -4.063558071627129120e-01
1.959999999999999964e+00 -4.244855408283631504e-01
1.969999999999999973e+00 -4.353228246004616220e-01
1.979999999999999982e+00 -4.389266580349343028e-01
1.989999999999999991e+00 -4.350911549058333327e-01
2.000000000000000000e+00 -4.240422887734292545e-01
2.010000000000000231e+00 -4.066367990120056675e-01
2.020000000000000018e+00 -3.832640432630234351e-01
2.030000000000000249e+00 -3.555187674069240078e-01
2.040000000000000036e+00 -3.240460194862352372e-01
2.049999999999999822e+00 -2.906077496501764945e-01
2.060000000000000053e+00 -2.562653993277003717e-01
2.069999999999999840e+00 -2.223834773216093741e-01
2.080000000000000071e+00 -1.902244350494405878e-01
2.089999999999999858e+00 -1.606601667513990472e-01
2.100000000000000089e+00 -1.346423211331665148e-01
2.109999999999999876e+00 -1.126816058914885399e-01
2.120000000000000107e+00 -9.501930383984419359e-02
2.129999999999999893e+00 -8.187735919087341108e-02
2.140000000000000124e+00 -7.267807671793327651e-02
2.149999999999999911e+00 -6.733373032084678800e-02
2.160000000000000142e+00 -6.465444205622680740e-02
2.169999999999999929e+00 -6.413936298193581576e-02
2.180000000000000160e+00 -6.444093719803679898e-02
2.189999999999999947e+00 -6.452635990280101985e-02
2.200000000000000178e+00 -6.330808694885828314e-02
2.209999999999999964e+00 -5.957767809363052891e-02
2.220000000000000195e+00 -5.248228399943076494e-02
2.229999999999999982e+00 -4.116605924485060991e-02
2.240000000000000213e+00 -2.495541415240401864e-02
2.250000000000000000e+00 -3.748010627813729359e-03
2.260000000000000231e+00 2.294484124163771732e-02
2.270000000000000018e+00 5.433447946086460145e-02
2.280000000000000249e+00 9.061724677930831084e-02
2.290000000000000036e+00 1.303357155341617613e-01
2.300000000000000266e+00 1.730725427451538512e-01
2.310000000000000053e+00 2.172348690386399217e-01
2.319999999999999840e+00 2.616701635553763117e-01
2.330000000000000071e+00 3.049378310983087426e-01
2.339999999999999858e+00 3.455740163190758052e-01
2.350000000000000089e+00 3.821992362908998575e-01
2.359999999999999876e+00 4.136602437593014381e-01
2.370000000000000107e+00 4.385331786156919653e-01
2.379999999999999893e+00 4.565248605459623077e-01
2.390000000000000124e+00 4.661246142601545572e-01
2.399999999999999911e+00 4.682195011702945386e-01
2.410000000000000142e+00 4.612900468034666912e-01
2.419999999999999929e+00 4.471659885562415671e-01
2.430000000000000160e+00 4.252156854492210591e-01
2.439999999999999947e+00 3.972661125455947961e-01
2.450000000000000178e+00 3.638335170571362354e-01
2.459999999999999964e+00 3.265983727270246328e-01
2.470000000000000195e+00 2.868533052649278048e-01
2.479999999999999982e+00 2.462084720575377084e-01
2.490000000000000213e+00 2.061224341734887722e-01
2.500000000000000000e+00 1.682638560970700914e-01
2.510000000000000231e+00 1.336076096254804890e-01
2.520000000000000018e+00 1.039806692968371915e-01
2.530000000000000249e+00 7.944295416077071237e-02
2.540000000000000036e+00 6.172908139000351374e-02
2.550000000000000266e+00 5.015597896845309933e-02
2.560000000000000053e+00 4.565487813177089571e-02
2.569999999999999840e+00 4.733374307300113742e-02
2.580000000000000071e+00 5.506034264490151930e-02
2.589999999999999858e+00 6.783551136439762430e-02
2.600000000000000089e+00 8.464914171713189273e-02
2.609999999999999876e+00 1.043736104146657656e-01
2.620000000000000107e+00 1.255836084150198095e-01
2.629999999999999893e+00 1.469229071314249180e-01
2.640000000000000124e+00 1.671569901332226604e-01
2.649999999999999911e+00 1.845953488709724255e-01
2.660000000000000142e+00 1.986320414738351747e-01
2.669999999999999929e+00 2.076378187520259433e-01
2.680000000000000160e+00 2.114948694014226194e-01
2.689999999999999947e+00 2.091931797461210607e-01
2.700000000000000178e+00 2.008915804941600325e-01
2.709999999999999964e+00 1.865112844597870412e-01
2.720000000000000195e+00 1.664023699784922261e-01
2.729999999999999982e+00 1.413997494680500344e-01
2.740000000000000213e+00 1.120717760149675946e-01
2.750000000000000000e+00 7.984416954519674148e-02
2.760000000000000231e+00 4.562031158427844874e-02
2.770000000000000018e+00 1.088808638342357929e-02
2.780000000000000249e+00 -2.299568492869453334e-02
2.790000000000000036e+00 -5.492638377974254360e-02
2.800000000000000266e+00 -8.340526610642613747e-02
2.810000000000000053e+00 -1.076948395629015870e-01
2.819999999999999840e+00 -1.266894565365269121e-01
2.830000000000000071e+00 -1.398760392779578032e-01
2.839999999999999858e+00 -1.469542950811148774e-01
2.850000000000000089e+00 -1.475562342642748326e-01
2.859999999999999876e+00 -1.423298180304111704e-01
2.870000000000000107e+00 -1.310738456647398686e-01
2.879999999999999893e+00 -1.152230262496672236e-01
2.890000000000000124e+00 -9.486257435551483097e-02
2.899999999999999911e+00 -7.173254893428124279e-02
2.910000000000000142e+00 -4.655545629193684476e-02
2.919999999999999929e+00 -2.077222832659513310e-02
2.930000000000000160e+00 4.473666122273048731e-03
2.939999999999999947e+00 2.803110662490685898e-02
2.950000000000000178e+00 4.885501541705948580e-02
2.959999999999999964e+00 6.598216950565770345e-02
2.970000000000000195e+00 7.892999959311977620e-02
2.979999999999999982e+00 8.685855349164552097e-02
2.990000000000000213e+00 9.010857898463207893e-02
3.000000000000000000e+00 8.798400518800678083e-02
3.010000000000000231e+00 8.158222470125967019e-02
3.020000000000000018e+00 7.062508901174376075e-02
3.030000000000000249e+00 5.649859412202760250e-02
3.040000000000000036e+00 3.965052035394362601e-02
3.050000000000000266e+00 2.134222844029269595e-02
3.060000000000000053e+00 2.528921985365455843e-03
3.070000000000000284e+00 -1.562897684640991020e-02
3.080000000000000071e+00 -3.213870456811190185e-02
3.089999999999999858e+00 -4.587404167808067923e-02
3.100000000000000089e+00 -5.627279699720644929e-02
3.109999999999999876e+00 -6.219724286707671579e-02
3.120000000000000107e+00 -6.384614655355920487e-02
3.129999999999999893e+00 -6.009926429677260595e-02
3.140000000000000124e+00 -5.187017964688617200e-02
3.149999999999999911e+00 -3.860501598690156688e-02
3.160000000000000142e+00 -2.137495050658137774e-02
3.169999999999999929e+00 -4.223591975897351275e-04
3.180000000000000160e+00 2.317804021642860812e-02
3.189999999999999947e+00 4.858817499568251347e-02
3.200000000000000178e+00 7.471150500655533711e-02
3.209999999999999964e+00 1.005247827275816130e-01
3.220000000000000195e+00 1.248402589807531826e-01
3.229999999999999982e+00 1.469228357669062623e-01
3.240000000000000213e+00 1.654318621820818902e-01
3.250000000000000000e+00 1.802665271710157113e-01
3.260000000000000231e+00 1.901004620221656838e-01
3.270000000000000018e+00 1.953868029416641061e-01
3.280000000000000249e+00 1.953573595128847706e-01
3.290000000000000036e+00 1.906260195079352016e-01
3.300000000000000266e+00 1.812091304852217755e-01
3.310000000000000053e+00 1.678021318457049160e-01
3.320000000000000284e+00 1.510993189477622678e-01
3.330000000000000071e+00 1.318861173345815818e-01
3.339999999999999858e+00 1.112128820327253076e-01
3.350000000000000089e+00 9.002288690552331940e-02
3.359999999999999876e+00 6.928071454426189268e-02
3.370000000000000107e+00 5.016294575205782619e-02
3.379999999999999893e+00 3.320284130647239984e-02
3.390000000000000124e+00 1.956468747057732091e-02
3.399999999999999911e+00 9.397395379092595216e-03
3.410000000000000142e+00 3.448100959056112687e-03
3.419999999999999929e+00 1.636507125141480664e-03
3.430000000000000160e+00 4.049215254182244803e-03
3.439999999999999947e+00 1.044375967905664462e-02
3.450000000000000178e+00 2.024720875845006582e-02
3.459999999999999964e+00 3.304259754263695614e-02
3.470000000000000195e+00 4.782759742378243223e-02
3.479999999999999982e+00 6.393507929285785485e-02
3.490000000000000213e+00 8.031834226335385352e-02
3.500000000000000000e+00 9.598707731711987601e-02
3.510000000000000231e+00 1.101764776657344902e-01
3.520000000000000018e+00 1.218115480722555266e-01
3.530000000000000249e+00 1.304042626600946664e-01
3.540000000000000036e+00 1.351879731271652674e-01
3.550000000000000266e+00 1.358588535776809048e-01
3.560000000000000053e+00 1.322517425324296614e-01
3.570000000000000284e+00 1.242027294144563143e-01
3.580000000000000071e+00 1.122324492085766678e-01
3.589999999999999858e+00 9.634778280057321176e-02
3.600000000000000089e+00 7.760594945209173257e-02
3.609999999999999876e+00 5.628580598164337201e-02
3.620000000000000107e+00 3.361801115619227065e-02
3.629999999999999893e+00 1.034139288147795793e-02
3.640000000000000124e+00 -1.252915252380343118e-02
3.649999999999999911e+00 -3.400947727754739802e-02
3.660000000000000142e+00 -5.328237502702862921e-02
3.669999999999999929e+00 -6.953217361683736164e-02
3.680000000000000160e+00 -8.206109126999842907e-02
3.689999999999999947e+00 -9.057676756423804765e-02
3.700000000000000178e+00 -9.445970677601688015e-02
3.709999999999999964e+00 -9.412228017162935223e-02
3.720000000000000195e+00 -8.905515544083429658e-02
3.729999999999999982e+00 -8.028995776578932986e-02
3.740000000000000213e+00 -6.765768089915324968e-02
3.750000000000000000e+00 -5.240310484234491500e-02
3.760000000000000231e+00 -3.496192060937330925e-02
3.770000000000000018e+00 -1.643515598772519321e-02
3.780000000000000249e+00 2.333192200645467680e-03
3.790000000000000036e+00 2.035012807202916593e-02
3.800000000000000266e+00 3.676933296399014645e-02
3.810000000000000053e+00 5.063960182426125584e-02
3.820000000000000284e+00 6.150581476998226438e-02
3.830000000000000071e+00 6.841529033697056617e-02
3.839999999999999858e+00 7.157330358225848232e-02
3.850000000000000089e+00 7.004904808728716625e-02
3.859999999999999876e+00 6.465875118675432076e-02
