# [DEFAULT]
# # input and output specifications
# dataformat = QA
# outputtype = gr
# 
# # PDF calculation setup
# mode = xray
# wavelength = 
# composition = Cl4.0Cr1.0Na1.0
# bgscale = 1.0
# rpoly = 0.9
# qmaxinst = 28
# qmin = 0.0
# qmax = 22
# rmin = 0.0
# rmax = 30.0
# rstep = 0.01
# 
# # End of config --------------------------------------------------------------
# 
# #### start data
# #S 1
# #L r(Å)  G(Å$^$)
# 
0.000000000000000000e+00 0.000000000000000000e+00
1.000000000000000021e-02 -4.234934739569907146e-03
2.000000000000000042e-02 -8.509712125905207272e-03
2.999999999999999889e-02 -1.286094972568305878e-02
4.000000000000000083e-02 -1.728319552873185463e-02
5.000000000000000278e-02 -2.175040947289725440e-02
5.999999999999999778e-02 -2.618264719584720984e-02
7.000000000000000666e-02 -3.046393417791254041e-02
8.000000000000000167e-02 -3.441394066560561626e-02
8.999999999999999667e-02 -3.786120653811158449e-02
1.000000000000000056e-01 -4.050153137970218670e-02
1.100000000000000006e-01 -4.220484771931871243e-02
1.199999999999999956e-01 -4.253190166794075522e-02
1.300000000000000044e-01 -4.149559474486293198e-02
1.400000000000000133e-01 -3.862915249038067350e-02
1.499999999999999944e-01 -3.407473843393628299e-02
1.600000000000000033e-01 -2.755861159776071961e-02
1.700000000000000122e-01 -1.928778320950260555e-02
1.799999999999999933e-01 -9.307893314458685896e-03
1.900000000000000022e-01 2.081988131671058933e-03
2.000000000000000111e-01 1.451816778216443588e-02
2.099999999999999922e-01 2.754988006172981799e-02
2.200000000000000011e-01 4.062672047857085467e-02
2.300000000000000100e-01 5.306271498676671389e-02
2.399999999999999911e-01 6.436727290536252422e-02
2.500000000000000000e-01 7.354001144532364143e-02
2.600000000000000089e-01 8.034601929048165725e-02
2.700000000000000178e-01 8.376630550490817007e-02
2.800000000000000266e-01 8.370765697263016225e-02
2.899999999999999800e-01 7.948946291109035278e-02
2.999999999999999889e-01 7.112195667533952048e-02
3.099999999999999978e-01 5.851459816069039255e-02
3.200000000000000067e-01 4.180101151454782005e-02
3.300000000000000155e-01 2.155676628816648871e-02
3.400000000000000244e-01 -1.860637508678529908e-03
3.500000000000000333e-01 -2.736315892997295135e-02
3.599999999999999867e-01 -5.419157736108061452e-02
3.699999999999999956e-01 -8.110775208354631394e-02
3.800000000000000044e-01 -1.067889104970361491e-01
3.900000000000000133e-01 -1.301811593621401975e-01
4.000000000000000222e-01 -1.496798940489604823e-01
4.100000000000000311e-01 -1.643818378821746418e-01
4.199999999999999845e-01 -1.729509952730033384e-01
4.299999999999999933e-01 -1.745315028157325699e-01
4.400000000000000022e-01 -1.685878322740038404e-01
4.500000000000000111e-01 -1.542780459903839996e-01
4.600000000000000200e-01 -1.322019276583845382e-01
4.700000000000000289e-01 -1.016293711183534898e-01
4.799999999999999822e-01 -6.430906948175178772e-02
4.899999999999999911e-01 -1.988041252657587674e-02
5.000000000000000000e-01 2.925238940218006720e-02
5.100000000000000089e-01 8.229887293817139682e-02
5.200000000000000178e-01 1.370476745177032774e-01
5.300000000000000266e-01 1.917130389568189597e-01
5.400000000000000355e-01 2.441656542312823641e-01
5.500000000000000444e-01 2.923644278371056449e-01
5.600000000000000533e-01 3.340589755757379931e-01
5.700000000000000622e-01 3.678237805325427212e-01
5.799999999999999600e-01 3.911107868073532834e-01
5.899999999999999689e-01 4.038886848554628095e-01
5.999999999999999778e-01 4.032715775542411452e-01
6.099999999999999867e-01 3.908776529877982520e-01
6.199999999999999956e-01 3.643119427687631084e-01
6.300000000000000044e-01 3.260119589272404417e-01
6.400000000000000133e-01 2.752795908528646862e-01
6.500000000000000222e-01 2.145153475399091125e-01
6.600000000000000311e-01 1.448609207064059934e-01
6.700000000000000400e-01 6.873496015858926445e-02
6.800000000000000488e-01 -1.148167976795538142e-02
6.900000000000000577e-01 -9.311213129737749838e-02
7.000000000000000666e-01 -1.735233541719030659e-01
7.099999999999999645e-01 -2.494539592935826056e-01
7.199999999999999734e-01 -3.191680317250888410e-01
7.299999999999999822e-01 -3.785453236011258049e-01
7.399999999999999911e-01 -4.273322363086446418e-01
7.500000000000000000e-01 -4.618219185825765960e-01
7.600000000000000089e-01 -4.823776409584999980e-01
7.700000000000000178e-01 -4.868829657012031520e-01
7.800000000000000266e-01 -4.759520821256617018e-01
7.900000000000000355e-01 -4.495995496946127989e-01
8.000000000000000444e-01 -4.085843810746371818e-01
8.100000000000000533e-01 -3.549740381105339626e-01
8.200000000000000622e-01 -2.898221023675097707e-01
8.300000000000000711e-01 -2.165719347338249945e-01
8.399999999999999689e-01 -1.369282217947103142e-01
8.499999999999999778e-01 -5.458012052359520472e-02
8.599999999999999867e-01 2.767440630105079055e-02
8.699999999999999956e-01 1.069280910638017862e-01
8.800000000000000044e-01 1.798216749608549658e-01
8.900000000000000133e-01 2.442097666979020643e-01
9.000000000000000222e-01 2.973494948189465137e-01
9.100000000000000311e-01 3.374942281825126789e-01
9.200000000000000400e-01 3.635536780092890607e-01
9.300000000000000488e-01 3.739574991619885047e-01
9.400000000000000577e-01 3.698011641627009793e-01
9.500000000000000666e-01 3.497095006459160493e-01
9.599999999999999645e-01 3.168579827558626882e-01
9.699999999999999734e-01 2.703502682653625144e-01
9.799999999999999822e-01 2.144369643814684201e-01
9.899999999999999911e-01 1.499963504645399071e-01
1.000000000000000000e+00 8.069601187201962122e-02
1.010000000000000009e+00 8.931627131825832511e-03
1.020000000000000018e+00 -6.213160810822761920e-02
1.030000000000000027e+00 -1.297337745075113902e-01
1.040000000000000036e+00 -1.909419391334763738e-01
1.050000000000000044e+00 -2.438461527616263003e-01
1.060000000000000053e+00 -2.855066634108229806e-01
1.070000000000000062e+00 -3.158071276777278391e-01
1.080000000000000071e+00 -3.317346154198287933e-01
1.090000000000000080e+00 -3.351806794275338786e-01
1.100000000000000089e+00 -3.238894632169869170e-01
1.110000000000000098e+00 -3.007384611907070737e-01
1.120000000000000107e+00 -2.654007977376948157e-01
1.130000000000000115e+00 -2.206897879600591972e-01
1.140000000000000124e+00 -1.681426387084166141e-01
1.150000000000000133e+00 -1.104990313231243304e-01
1.159999999999999920e+00 -5.031118054763270009e-02
1.169999999999999929e+00 9.575815911948202391e-03
1.179999999999999938e+00 6.673139729951309274e-02
1.189999999999999947e+00 1.179712549230554214e-01
1.199999999999999956e+00 1.621080447717522799e-01
1.209999999999999964e+00 1.954810047389337335e-01
1.219999999999999973e+00 2.185490575863917873e-01
1.229999999999999982e+00 2.284745692761310787e-01
1.239999999999999991e+00 2.263592417377184030e-01
1.250000000000000000e+00 2.111332510255386208e-01
1.260000000000000009e+00 1.841774395006688936e-01
1.270000000000000018e+00 1.463365609240706577e-01
1.280000000000000027e+00 9.920122358322439049e-02
1.290000000000000036e+00 4.506448847253930606e-02
1.300000000000000044e+00 -1.413047242333415401e-02
1.310000000000000053e+00 -7.556540372288725327e-02
1.320000000000000062e+00 -1.366831553886200812e-01
1.330000000000000071e+00 -1.951957910810153685e-01
1.340000000000000080e+00 -2.479320976024639578e-01
1.350000000000000089e+00 -2.936383615150389148e-01
1.360000000000000098e+00 -3.294551207025777639e-01
1.370000000000000107e+00 -3.547761790356235845e-01
1.380000000000000115e+00 -3.680164878000344864e-01
1.390000000000000124e+00 -3.689336566831438180e-01
1.400000000000000133e+00 -3.577237006274521236e-01
1.409999999999999920e+00 -3.344075033098254379e-01
1.419999999999999929e+00 -3.009049892475033627e-01
1.429999999999999938e+00 -2.576137669996169666e-01
1.439999999999999947e+00 -2.075794853912885651e-01
1.449999999999999956e+00 -1.518582295376288693e-01
1.459999999999999964e+00 -9.361939441723600430e-02
1.469999999999999973e+00 -3.496606742071813045e-02
1.479999999999999982e+00 2.166942955743375587e-02
1.489999999999999991e+00 7.380200151460492020e-02
1.500000000000000000e+00 1.195318546307419516e-01
1.510000000000000009e+00 1.570054217657527729e-01
1.520000000000000018e+00 1.846093666814276057e-01
1.530000000000000027e+00 2.018907483722111318e-01
1.540000000000000036e+00 2.073941567225765226e-01
1.550000000000000044e+00 2.023875686633222204e-01
1.560000000000000053e+00 1.856326231063812893e-01
1.570000000000000062e+00 1.597819130827928535e-01
1.580000000000000071e+00 1.244514024021226295e-01
1.590000000000000080e+00 8.259793767766784867e-02
1.600000000000000089e+00 3.521788955685496020e-02
1.610000000000000098e+00 -1.515147167275690543e-02
1.620000000000000107e+00 -6.663367023801189393e-02
1.630000000000000115e+00 -1.170021526498200293e-01
1.640000000000000124e+00 -1.644052538168961353e-01
1.650000000000000133e+00 -2.067544444400746528e-01
1.660000000000000142e+00 -2.430624075203675072e-01
1.669999999999999929e+00 -2.712592849389522942e-01
1.679999999999999938e+00 -2.917719232849717015e-01
1.689999999999999947e+00 -3.025732295985831266e-01
1.699999999999999956e+00 -3.053459983426486390e-01
1.709999999999999964e+00 -2.991240813842284130e-01
1.719999999999999973e+00 -2.857712755749081679e-01
1.729999999999999982e+00 -2.657124091253932896e-01
1.739999999999999991e+00 -2.407755398005170799e-01
1.750000000000000000e+00 -2.123842340163869247e-01
1.760000000000000009e+00 -1.823560047155565467e-01
1.770000000000000018e+00 -1.524088603247772122e-01
1.780000000000000027e+00 -1.244627537402426404e-01
1.790000000000000036e+00 -9.974822871867317087e-02
1.800000000000000044e+00 -8.038698058442843297e-02
1.810000000000000053e+00 -6.658442041827804248e-02
1.820000000000000062e+00 -6.035429145643936288e-02
1.830000000000000071e+00 -6.104232174387486803e-02
1.840000000000000080e+00 -6.974759656497037108e-02
1.850000000000000089e+00 -8.552969459651794948e-02
1.860000000000000098e+00 -1.082595208322278402e-01
1.870000000000000107e+00 -1.368357909891890212e-01
1.880000000000000115e+00 -1.700989636502892310e-01
1.890000000000000124e+00 -2.067678116820562684e-01
1.900000000000000133e+00 -2.451830376014117741e-01
1.910000000000000142e+00 -2.837675952639647226e-01
1.919999999999999929e+00 -3.210693286246482092e-01
1.929999999999999938e+00 -3.550854526645308429e-01
1.939999999999999947e+00 -3.850797571408362541e-01
1.949999999999999956e+00 -4.090988466075556884e-01
1.959999999999999964e+00 -4.269406901981437907e-01
1.969999999999999973e+00 -4.373484360275740612e-01
1.979999999999999982e+00 -4.404068980005531597e-01
1.989999999999999991e+00 -4.359270568186225381e-01
2.000000000000000000e+00 -4.241587666378058286e-01
2.010000000000000231e+00 -4.059853874126137518e-01
2.020000000000000018e+00 -3.818210284142353750e-01
2.030000000000000249e+00 -3.532866539778872217e-01
2.040000000000000036e+00 -3.210564974962028528e-01
2.049999999999999822e+00 -2.869093570558641226e-01
2.060000000000000053e+00 -2.519402324728148845e-01
2.069999999999999840e+00 -2.175196472286281546e-01
2.080000000000000071e+00 -1.849386342788657545e-01
2.089999999999999858e+00 -1.550711140729131576e-01
2.100000000000000089e+00 -1.288844908501579622e-01
2.109999999999999876e+00 -1.068911461556610182e-01
2.120000000000000107e+00 -8.933173186841421309e-02
2.129999999999999893e+00 -7.643120358471261477e-02
2.140000000000000124e+00 -6.759519961841295443e-02
2.149999999999999911e+00 -6.273992768017240540e-02
2.160000000000000142e+00 -6.064665616136506038e-02
2.169999999999999929e+00 -6.081714346775292379e-02
2.180000000000000160e+00 -6.187097102155065392e-02
2.189999999999999947e+00 -6.276787278943096737e-02
2.200000000000000178e+00 -6.239416367825552368e-02
2.209999999999999964e+00 -5.952513285127218612e-02
2.220000000000000195e+00 -5.328677287872457535e-02
2.229999999999999982e+00 -4.280488854537414789e-02
2.240000000000000213e+00 -2.738631851141790433e-02
2.250000000000000000e+00 -6.915103500771064074e-03
2.260000000000000231e+00 1.911863464199712453e-02
2.270000000000000018e+00 4.992956143779117562e-02
2.280000000000000249e+00 8.573912064172657665e-02
2.290000000000000036e+00 1.250808386148408724e-01
2.300000000000000266e+00 1.675627033701841961e-01
2.310000000000000053e+00 2.115763929753896322e-01
2.319999999999999840e+00 2.559848004328615922e-01
2.330000000000000071e+00 2.993340394470262456e-01
2.339999999999999858e+00 3.401623172755167679e-01
2.350000000000000089e+00 3.770795974262652339e-01
2.359999999999999876e+00 4.089225072522725268e-01
2.370000000000000107e+00 4.342582808888095225e-01
2.379999999999999893e+00 4.527749290289720396e-01
2.390000000000000124e+00 4.629520816072473788e-01
2.399999999999999911e+00 4.656546846163392428e-01
2.410000000000000142e+00 4.593495308844965930e-01
2.419999999999999929e+00 4.458468448377812532e-01
2.430000000000000160e+00 4.244957285610672648e-01
2.439999999999999947e+00 3.971088387756591676e-01
2.450000000000000178e+00 3.641824590870696432e-01
2.459999999999999964e+00 3.273851386370704719e-01
2.470000000000000195e+00 2.879953776984731650e-01
2.479999999999999982e+00 2.476114038268990569e-01
2.490000000000000213e+00 2.076887330578476853e-01
2.500000000000000000e+00 1.698829917623846664e-01
2.510000000000000231e+00 1.351798625201935944e-01
2.520000000000000018e+00 1.053928697731505715e-01
2.530000000000000249e+00 8.060491611035318360e-02
2.540000000000000036e+00 6.254297479957141026e-02
2.550000000000000266e+00 5.055082468686490638e-02
2.560000000000000053e+00 4.556542423270949077e-02
2.569999999999999840e+00 4.671883222809966596e-02
2.580000000000000071e+00 5.389579837574347970e-02
2.589999999999999858e+00 6.612036027300806362e-02
2.600000000000000089e+00 8.240335917473114169e-02
2.609999999999999876e+00 1.016422331263102802e-01
2.620000000000000107e+00 1.224278461135223650e-01
2.629999999999999893e+00 1.434334995984460903e-01
2.640000000000000124e+00 1.634277332551424267e-01
2.649999999999999911e+00 1.807553777581313859e-01
2.660000000000000142e+00 1.947985966696522409e-01
2.669999999999999929e+00 2.039560078091453565e-01
2.680000000000000160e+00 2.080941057066839073e-01
2.689999999999999947e+00 2.062134669978923640e-01
2.700000000000000178e+00 1.984568242607892274e-01
2.709999999999999964e+00 1.847369800047624633e-01
2.720000000000000195e+00 1.653869863863340617e-01
2.729999999999999982e+00 1.412182928904965051e-01
2.740000000000000213e+00 1.127786043221629120e-01
2.750000000000000000e+00 8.146361561405969509e-02
2.760000000000000231e+00 4.814833788005212778e-02
2.770000000000000018e+00 1.429470031056061935e-02
2.780000000000000249e+00 -1.877843401916368463e-02
2.790000000000000036e+00 -4.998262134373838983e-02
2.800000000000000266e+00 -7.785703557099957206e-02
2.810000000000000053e+00 -1.016751189700353941e-01
2.819999999999999840e+00 -1.203572267339302754e-01
2.830000000000000071e+00 -1.333995197645841957e-01
2.839999999999999858e+00 -1.405073107482072425e-01
2.850000000000000089e+00 -1.413217078963866780e-01
2.859999999999999876e+00 -1.364727334062774133e-01
2.870000000000000107e+00 -1.257669504002637828e-01
2.879999999999999893e+00 -1.106007505102354210e-01
2.890000000000000124e+00 -9.106182435198728609e-02
2.899999999999999911e+00 -6.884279085732071535e-02
2.910000000000000142e+00 -4.465106623644565093e-02
2.919999999999999929e+00 -1.988701598168873125e-02
2.930000000000000160e+00 4.335660441250973988e-03
2.939999999999999947e+00 2.690050215334489903e-02
2.950000000000000178e+00 4.679434954382696854e-02
2.959999999999999964e+00 6.308661754099947894e-02
2.970000000000000195e+00 7.531555165435260824e-02
2.979999999999999982e+00 8.267508257498666635e-02
2.990000000000000213e+00 8.550541826819918478e-02
3.000000000000000000e+00 8.314678244081108449e-02
3.010000000000000231e+00 7.667208338941350343e-02
3.020000000000000018e+00 6.583353012011536332e-02
3.030000000000000249e+00 5.198031039801601083e-02
3.040000000000000036e+00 3.556839554289692451e-02
3.050000000000000266e+00 1.782479080472863797e-02
3.060000000000000053e+00 -3.101488383169537233e-04
3.070000000000000284e+00 -1.770798806013896068e-02
3.080000000000000071e+00 -3.340490999488047313e-02
3.089999999999999858e+00 -4.630672115918028214e-02
3.100000000000000089e+00 -5.588177696917356885e-02
3.109999999999999876e+00 -6.102774682255852207e-02
3.120000000000000107e+00 -6.196258459435247806e-02
3.129999999999999893e+00 -5.760743142345262080e-02
3.140000000000000124e+00 -4.887740506497436493e-02
3.149999999999999911e+00 -3.525461283354058839e-02
3.160000000000000142e+00 -1.780275586211793951e-02
3.169999999999999929e+00 3.216944423705006204e-03
3.180000000000000160e+00 2.674038542851530503e-02
3.189999999999999947e+00 5.193180717453810269e-02
3.200000000000000178e+00 7.770655441663101848e-02
3.209999999999999964e+00 1.030620150016794828e-01
3.220000000000000195e+00 1.268241342523201698e-01
3.229999999999999982e+00 1.482886947666166855e-01
3.240000000000000213e+00 1.661326976488486928e-01
3.250000000000000000e+00 1.802855149618895203e-01
3.260000000000000231e+00 1.894445968302002903e-01
3.270000000000000018e+00 1.940839553592119959e-01
3.280000000000000249e+00 1.934601211578683422e-01
3.290000000000000036e+00 1.881989363887266453e-01
3.300000000000000266e+00 1.783333683218885635e-01
3.310000000000000053e+00 1.645649783175146819e-01
3.320000000000000284e+00 1.475905676670419275e-01
3.330000000000000071e+00 1.281976034099013284e-01
3.339999999999999858e+00 1.074241425214734480e-01
3.350000000000000089e+00 8.621146700969624377e-02
3.359999999999999876e+00 6.550158512198248073e-02
3.370000000000000107e+00 4.646380857691347760e-02
3.379999999999999893e+00 2.960702795228985218e-02
3.390000000000000124e+00 1.608075936590031008e-02
3.399999999999999911e+00 6.015813101652045351e-03
3.410000000000000142e+00 1.426472770692361301e-04
3.419999999999999929e+00 -1.630859882587370503e-03
3.430000000000000160e+00 7.715067469791611794e-04
3.439999999999999947e+00 7.101096276748354585e-03
3.450000000000000178e+00 1.678622047924047123e-02
3.459999999999999964e+00 2.940989846464256430e-02
3.470000000000000195e+00 4.398301517522070631e-02
3.479999999999999982e+00 5.984672135359467987e-02
3.490000000000000213e+00 7.597441598316098665e-02
3.500000000000000000e+00 9.139546922538481499e-02
3.510000000000000231e+00 1.053649222461154333e-01
3.520000000000000018e+00 1.168354847554739784e-01
3.530000000000000249e+00 1.253369230766294695e-01
3.540000000000000036e+00 1.301285541691921954e-01
3.550000000000000266e+00 1.309233523705283231e-01
3.560000000000000053e+00 1.275696341143040535e-01
3.570000000000000284e+00 1.199196496518435406e-01
3.580000000000000071e+00 1.084873737846845654e-01
3.589999999999999858e+00 9.329346231263892231e-02
3.600000000000000089e+00 7.536660522388219374e-02
3.609999999999999876e+00 5.499240768499760734e-02
3.620000000000000107e+00 3.335887052821730203e-02
3.629999999999999893e+00 1.119104957423298560e-02
3.640000000000000124e+00 -1.053788612528168411e-02
3.649999999999999911e+00 -3.087727936467252882e-02
3.660000000000000142e+00 -4.905041282953293696e-02
3.669999999999999929e+00 -6.428176307174168769e-02
3.680000000000000160e+00 -7.591645820803137601e-02
3.689999999999999947e+00 -8.369206278454320580e-02
3.700000000000000178e+00 -8.703785612547319805e-02
3.709999999999999964e+00 -8.637020749126762820e-02
3.720000000000000195e+00 -8.123546903734625568e-02
3.729999999999999982e+00 -7.263603983211211479e-02
3.740000000000000213e+00 -6.045367938785620870e-02
3.750000000000000000e+00 -4.588350215437395768e-02
3.760000000000000231e+00 -2.937982351929920716e-02
3.770000000000000018e+00 -1.199476571604164536e-02
3.780000000000000249e+00 5.446643218226508189e-03
3.790000000000000036e+00 2.200034049432134098e-02
3.800000000000000266e+00 3.686579901840170842e-02
3.810000000000000053e+00 4.914545729291382170e-02
3.820000000000000284e+00 5.843782242035713143e-02
3.830000000000000071e+00 6.385533972112794610e-02
3.839999999999999858e+00 6.564169569160319129e-02
3.850000000000000089e+00 6.294885683685617905e-02
3.859999999999999876e+00 5.660218511073112496e-02
