# [DEFAULT]
# # input and output specifications
# dataformat = QA
# outputtype = gr
# 
# # PDF calculation setup
# mode = xray
# wavelength = 
# composition = Cl4.0Cr1.0Na1.0
# bgscale = 1.0
# rpoly = 0.9
# qmaxinst = 28
# qmin = 0.0
# qmax = 22
# rmin = 0.0
# rmax = 30.0
# rstep = 0.01
# 
# # End of config --------------------------------------------------------------
# 
# #### start data
# #S 1
# #L r(Å)  G(Å$^$)
# 
0.000000000000000000e+00 0.000000000000000000e+00
1.000000000000000021e-02 -4.025156793063246370e-03
2.000000000000000042e-02 -8.125056966864488070e-03
2.999999999999999889e-02 -1.237767249001908709e-02
4.000000000000000083e-02 -1.679656585444935790e-02
5.000000000000000278e-02 -2.138382578587504079e-02
5.999999999999999778e-02 -2.606269573642465767e-02
7.000000000000000666e-02 -3.071714031586979254e-02
8.000000000000000167e-02 -3.515355022112839206e-02
8.999999999999999667e-02 -3.917081798178947971e-02
1.000000000000000056e-01 -4.243238680091300508e-02
1.100000000000000006e-01 -4.476265657622174182e-02
1.199999999999999956e-01 -4.566735010766188874e-02
1.300000000000000044e-01 -4.512018911252811681e-02
1.400000000000000133e-01 -4.258283429678278581e-02
1.499999999999999944e-01 -3.817741360029654196e-02
1.600000000000000033e-01 -3.156983767868110080e-02
1.700000000000000122e-01 -2.296287747512450877e-02
1.799999999999999933e-01 -1.237959669403470436e-02
1.900000000000000022e-01 -1.312297971629932357e-04
2.000000000000000111e-01 1.339142125130780674e-02
2.099999999999999922e-01 2.770425944703104951e-02
2.200000000000000011e-01 4.218831314230486046e-02
2.300000000000000100e-01 5.609403258956889571e-02
2.399999999999999911e-01 6.884928388170666325e-02
2.500000000000000000e-01 7.934949495715744316e-02
2.600000000000000089e-01 8.729730052958047104e-02
2.700000000000000178e-01 9.155255898484267185e-02
2.800000000000000266e-01 9.198215957528399489e-02
2.899999999999999800e-01 8.781217309781631786e-02
2.999999999999999889e-01 7.903228170020325238e-02
3.099999999999999978e-01 6.552591489724454710e-02
3.200000000000000067e-01 4.742796999404396557e-02
3.300000000000000155e-01 2.537280902899165941e-02
3.400000000000000244e-01 -2.467966996650573092e-04
3.500000000000000333e-01 -2.821320658077219878e-02
3.599999999999999867e-01 -5.767575820741678572e-02
3.699999999999999956e-01 -8.724055275087744254e-02
3.800000000000000044e-01 -1.154166970074782805e-01
3.900000000000000133e-01 -1.410134832963845786e-01
4.000000000000000222e-01 -1.622188128250489081e-01
4.100000000000000311e-01 -1.780112890612299270e-01
4.199999999999999845e-01 -1.868824507227639653e-01
4.299999999999999933e-01 -1.878678704634585972e-01
4.400000000000000022e-01 -1.803675044118025483e-01
4.500000000000000111e-01 -1.634413258433492222e-01
4.600000000000000200e-01 -1.377778342799914346e-01
4.700000000000000289e-01 -1.025793048616143593e-01
4.799999999999999822e-01 -5.983497143333289803e-02
4.899999999999999911e-01 -9.190384212404541231e-03
5.000000000000000000e-01 4.662520826989269979e-02
5.100000000000000089e-01 1.066481982658295941e-01
5.200000000000000178e-01 1.683576507698723024e-01
5.300000000000000266e-01 2.296626688353808621e-01
5.400000000000000355e-01 2.881192068615249791e-01
5.500000000000000444e-01 3.413640839991034515e-01
5.600000000000000533e-01 3.867944381263976328e-01
5.700000000000000622e-01 4.227805575587286757e-01
5.799999999999999600e-01 4.463573374606477073e-01
5.899999999999999689e-01 4.575277730342467986e-01
5.999999999999999778e-01 4.529206347732785964e-01
6.099999999999999867e-01 4.344617632643225091e-01
6.199999999999999956e-01 3.993492157210384863e-01
6.300000000000000044e-01 3.504548095720436685e-01
6.400000000000000133e-01 2.869614381908368039e-01
6.500000000000000222e-01 2.116872275092728795e-01
6.600000000000000311e-01 1.259697687534652166e-01
6.700000000000000400e-01 3.264543195096281103e-02
6.800000000000000488e-01 -6.549210438890144814e-02
6.900000000000000577e-01 -1.652987496074098395e-01
7.000000000000000666e-01 -2.636759926673568621e-01
7.099999999999999645e-01 -3.567786718588988881e-01
7.199999999999999734e-01 -4.425499397953567282e-01
7.299999999999999822e-01 -5.161064534009012217e-01
7.399999999999999911e-01 -5.771213614309655959e-01
7.500000000000000000e-01 -6.211632992399220843e-01
7.600000000000000089e-01 -6.486121732279022112e-01
7.700000000000000178e-01 -6.568808974260963440e-01
7.800000000000000266e-01 -6.466158502506763606e-01
7.900000000000000355e-01 -6.177330493134023381e-01
8.000000000000000444e-01 -5.710071957036637613e-01
8.100000000000000533e-01 -5.088015222967321449e-01
8.200000000000000622e-01 -4.321812674087388562e-01
8.300000000000000711e-01 -3.452031558092906738e-01
8.399999999999999689e-01 -2.496329627463771406e-01
8.499999999999999778e-01 -1.499130498803402378e-01
8.599999999999999867e-01 -4.908506867822252928e-02
8.699999999999999956e-01 4.928451905184430548e-02
8.800000000000000044e-01 1.413977119502514979e-01
8.900000000000000133e-01 2.246054867369661201e-01
9.000000000000000222e-01 2.956960843500964220e-01
9.100000000000000311e-01 3.525070357202346183e-01
9.200000000000000400e-01 3.936365658264656120e-01
9.300000000000000488e-01 4.171284178044646351e-01
9.400000000000000577e-01 4.240552506792390486e-01
9.500000000000000666e-01 4.126570348209255834e-01
9.599999999999999645e-01 3.864231273479272200e-01
9.699999999999999734e-01 3.440831143783947277e-01
9.799999999999999822e-01 2.904310239284995654e-01
9.899999999999999911e-01 2.262195745663458379e-01
1.000000000000000000e+00 1.556091877591461448e-01
1.010000000000000009e+00 8.115023910129451346e-02
1.020000000000000018e+00 6.430969647490895891e-03
1.030000000000000027e+00 -6.546974528109034130e-02
1.040000000000000036e+00 -1.312436103177049007e-01
1.050000000000000044e+00 -1.886470129892173220e-01
1.060000000000000053e+00 -2.343789279847933449e-01
1.070000000000000062e+00 -2.681148239550702472e-01
1.080000000000000071e+00 -2.864687294863589861e-01
1.090000000000000080e+00 -2.913265000144872885e-01
1.100000000000000089e+00 -2.801022096763565172e-01
1.110000000000000098e+00 -2.558150193421708241e-01
1.120000000000000107e+00 -2.179775434243315935e-01
1.130000000000000115e+00 -1.695834500753322927e-01
1.140000000000000124e+00 -1.122130346247519617e-01
1.150000000000000133e+00 -4.879955196777434334e-02
1.159999999999999920e+00 1.790617095573225626e-02
1.169999999999999929e+00 8.485187586514164604e-02
1.179999999999999938e+00 1.493453065394762524e-01
1.189999999999999947e+00 2.079652445137735173e-01
1.199999999999999956e+00 2.593080593993322691e-01
1.209999999999999964e+00 2.994280105036329354e-01
1.219999999999999973e+00 3.286824193102745317e-01
1.229999999999999982e+00 3.439689660578228447e-01
1.239999999999999991e+00 3.463672076292261259e-01
1.250000000000000000e+00 3.346462495079873811e-01
1.260000000000000009e+00 3.102043920491562301e-01
1.270000000000000018e+00 2.738694465386232180e-01
1.280000000000000027e+00 2.272662257771229377e-01
1.290000000000000036e+00 1.728065038347609272e-01
1.300000000000000044e+00 1.124779163394446918e-01
1.310000000000000053e+00 4.930493420900140811e-02
1.320000000000000062e+00 -1.409494635846333076e-02
1.330000000000000071e+00 -7.521320617736453051e-02
1.340000000000000080e+00 -1.307832282808925051e-01
1.350000000000000089e+00 -1.793870539880491333e-01
1.360000000000000098e+00 -2.180525295111041262e-01
1.370000000000000107e+00 -2.460777773932683876e-01
1.380000000000000115e+00 -2.617965640304966146e-01
1.390000000000000124e+00 -2.649203753132802208e-01
1.400000000000000133e+00 -2.556280086235782623e-01
1.409999999999999920e+00 -2.339298476835940388e-01
1.419999999999999929e+00 -2.017930880370850388e-01
1.429999999999999938e+00 -1.596335792232703998e-01
1.439999999999999947e+00 -1.105818218299940842e-01
1.449999999999999956e+00 -5.573846665283997692e-02
1.459999999999999964e+00 1.645031496267752510e-03
1.469999999999999973e+00 5.940174932802925328e-02
1.479999999999999982e+00 1.150490246694080843e-01
1.489999999999999991e+00 1.660506154810716395e-01
1.500000000000000000e+00 2.104883891672763851e-01
1.510000000000000009e+00 2.464992792585973536e-01
1.520000000000000018e+00 2.724831170926409474e-01
1.530000000000000027e+00 2.880256910566540984e-01
1.540000000000000036e+00 2.917189092238665071e-01
1.550000000000000044e+00 2.848985515741462859e-01
1.560000000000000053e+00 2.664127443880437429e-01
1.570000000000000062e+00 2.389757360953675691e-01
1.580000000000000071e+00 2.023213938263802025e-01
1.590000000000000080e+00 1.594397135998898152e-01
1.600000000000000089e+00 1.114319436792550744e-01
1.610000000000000098e+00 6.084585356763765052e-02
1.620000000000000107e+00 9.605429460298957334e-03
1.630000000000000115e+00 -4.007516637272531129e-02
1.640000000000000124e+00 -8.637681145403199034e-02
1.650000000000000133e+00 -1.272527719276617120e-01
1.660000000000000142e+00 -1.618202421580726136e-01
1.669999999999999929e+00 -1.880946429596537239e-01
1.679999999999999938e+00 -2.066390546026082853e-01
1.689999999999999947e+00 -2.155732887953135113e-01
1.699999999999999956e+00 -2.166967406268754115e-01
1.709999999999999964e+00 -2.092302452477132757e-01
1.719999999999999973e+00 -1.951195617136139704e-01
1.729999999999999982e+00 -1.749522336004689094e-01
1.739999999999999991e+00 -1.506131396505751285e-01
1.750000000000000000e+00 -1.236001457172490325e-01
1.760000000000000009e+00 -9.576587814316064873e-02
1.770000000000000018e+00 -6.877816113406004517e-02
1.780000000000000027e+00 -4.456196043939577439e-02
1.790000000000000036e+00 -2.417955970804043508e-02
1.800000000000000044e+00 -9.705863462524121771e-03
1.810000000000000053e+00 -1.114555243890279213e-03
1.820000000000000062e+00 -2.834410430332205948e-04
1.830000000000000071e+00 -6.342354311825526038e-03
1.840000000000000080e+00 -2.018343105107648847e-02
1.850000000000000089e+00 -4.069384398273281217e-02
1.860000000000000098e+00 -6.755100930697349737e-02
1.870000000000000107e+00 -9.951759318179889680e-02
1.880000000000000115e+00 -1.353456246799184803e-01
1.890000000000000124e+00 -1.736570578739412840e-01
1.900000000000000133e+00 -2.128664727770585297e-01
1.910000000000000142e+00 -2.513632099390109564e-01
1.919999999999999929e+00 -2.879294916094188861e-01
1.929999999999999938e+00 -3.206417549010928125e-01
1.939999999999999947e+00 -3.490867175547742174e-01
1.949999999999999956e+00 -3.715731008717652051e-01
1.959999999999999964e+00 -3.882200199396178553e-01
1.969999999999999973e+00 -3.981568475448423183e-01
1.979999999999999982e+00 -4.018010446483049614e-01
1.989999999999999991e+00 -3.993308299521297067e-01
2.000000000000000000e+00 -3.913662161392911787e-01
2.010000000000000231e+00 -3.789783676134480528e-01
2.020000000000000018e+00 -3.630016308269810033e-01
2.030000000000000249e+00 -3.449350146195687139e-01
2.040000000000000036e+00 -3.259006005498497061e-01
2.049999999999999822e+00 -3.072227169394247670e-01
2.060000000000000053e+00 -2.902992114964931814e-01
2.069999999999999840e+00 -2.758864405420435317e-01
2.080000000000000071e+00 -2.652039996171416392e-01
2.089999999999999858e+00 -2.585179203119400970e-01
2.100000000000000089e+00 -2.563669552624195935e-01
2.109999999999999876e+00 -2.586218731889573519e-01
2.120000000000000107e+00 -2.649171152304488075e-01
2.129999999999999893e+00 -2.747287806397937793e-01
2.140000000000000124e+00 -2.869335473315970386e-01
2.149999999999999911e+00 -3.005109401863041985e-01
2.160000000000000142e+00 -3.140647993241127423e-01
2.169999999999999929e+00 -3.259193227316741770e-01
2.180000000000000160e+00 -3.349583206664374369e-01
2.189999999999999947e+00 -3.391430455779844699e-01
2.200000000000000178e+00 -3.377367913389986431e-01
2.209999999999999964e+00 -3.290309500944664789e-01
2.220000000000000195e+00 -3.125376006837170539e-01
2.229999999999999982e+00 -2.875183832054316047e-01
2.240000000000000213e+00 -2.536797268580700537e-01
2.250000000000000000e+00 -2.115903700316672242e-01
2.260000000000000231e+00 -1.612294093928955119e-01
2.270000000000000018e+00 -1.043879667876975170e-01
2.280000000000000249e+00 -4.155353089335035721e-02
2.290000000000000036e+00 2.481212343244464796e-02
2.300000000000000266e+00 9.327645923081270829e-02
2.310000000000000053e+00 1.614924781963054112e-01
2.319999999999999840e+00 2.271644621545143572e-01
2.330000000000000071e+00 2.882860253854416799e-01
2.339999999999999858e+00 3.424878594092798934e-01
2.350000000000000089e+00 3.878920385057226250e-01
2.359999999999999876e+00 4.229933289296877175e-01
2.370000000000000107e+00 4.458655342223810658e-01
2.379999999999999893e+00 4.565885948016031870e-01
2.390000000000000124e+00 4.531560689738355352e-01
2.399999999999999911e+00 4.375361773265223353e-01
2.410000000000000142e+00 4.078236894495341214e-01
2.419999999999999929e+00 3.673261660727870637e-01
2.430000000000000160e+00 3.156156139822825502e-01
2.439999999999999947e+00 2.558323250271438143e-01
2.450000000000000178e+00 1.892819345827949362e-01
2.459999999999999964e+00 1.188072245187356407e-01
2.470000000000000195e+00 4.672645333682110685e-02
2.479999999999999982e+00 -2.421221268959090206e-02
2.490000000000000213e+00 -9.170886063383386355e-02
2.500000000000000000e+00 -1.528470665825124031e-01
2.510000000000000231e+00 -2.063762353480333434e-01
2.520000000000000018e+00 -2.490193971162327491e-01
2.530000000000000249e+00 -2.811841686957188835e-01
2.540000000000000036e+00 -2.997176917004895635e-01
2.550000000000000266e+00 -3.062054864919810382e-01
2.560000000000000053e+00 -2.989257674759207006e-01
2.569999999999999840e+00 -2.796092135207348672e-01
2.580000000000000071e+00 -2.484010329017095897e-01
2.589999999999999858e+00 -2.070284674710735628e-01
2.600000000000000089e+00 -1.571864579932249761e-01
2.609999999999999876e+00 -1.006622589765916592e-01
2.620000000000000107e+00 -3.995746636737877722e-02
2.629999999999999893e+00 2.287587969659915163e-02
2.640000000000000124e+00 8.549787258118110578e-02
2.649999999999999911e+00 1.453583174966772695e-01
2.660000000000000142e+00 2.010320925271581738e-01
2.669999999999999929e+00 2.499067392979939795e-01
2.680000000000000160e+00 2.913813698883216396e-01
2.689999999999999947e+00 3.236146541922390596e-01
2.700000000000000178e+00 3.464548503109092237e-01
2.709999999999999964e+00 3.593951559406153851e-01
2.720000000000000195e+00 3.625224873049719410e-01
2.729999999999999982e+00 3.567644431236913216e-01
2.740000000000000213e+00 3.424058399579592571e-01
2.750000000000000000e+00 3.214636833653713999e-01
2.760000000000000231e+00 2.945268769473127768e-01
2.770000000000000018e+00 2.639982589592576034e-01
2.780000000000000249e+00 2.310348447251766024e-01
2.790000000000000036e+00 1.976328264282017633e-01
2.800000000000000266e+00 1.653755586545399836e-01
2.810000000000000053e+00 1.356259647331546359e-01
2.819999999999999840e+00 1.097553210764488085e-01
2.830000000000000071e+00 8.867302251496435306e-02
2.839999999999999858e+00 7.295715270295419219e-02
2.850000000000000089e+00 6.318532031334904431e-02
2.859999999999999876e+00 5.889079780737780517e-02
2.870000000000000107e+00 6.032639275723591238e-02
2.879999999999999893e+00 6.611526747740130439e-02
2.890000000000000124e+00 7.607401180881691316e-02
2.899999999999999911e+00 8.843320289145570334e-02
2.910000000000000142e+00 1.022639322222988340e-01
2.919999999999999929e+00 1.160429239033713006e-01
2.930000000000000160e+00 1.283937962999100735e-01
2.939999999999999947e+00 1.380576233509074047e-01
2.950000000000000178e+00 1.438321810868146144e-01
2.959999999999999964e+00 1.446417861816250705e-01
2.970000000000000195e+00 1.400115781033571538e-01
2.979999999999999982e+00 1.290122196562106804e-01
2.990000000000000213e+00 1.121958313520919209e-01
3.000000000000000000e+00 8.884853793880985451e-02
3.010000000000000231e+00 6.043970109555028836e-02
3.020000000000000018e+00 2.684054901902489104e-02
3.030000000000000249e+00 -1.014697493039241893e-02
3.040000000000000036e+00 -4.971776739867062034e-02
3.050000000000000266e+00 -9.020734997916134146e-02
3.060000000000000053e+00 -1.302013257861932283e-01
3.070000000000000284e+00 -1.681092409924583309e-01
3.080000000000000071e+00 -2.025498934365499715e-01
3.089999999999999858e+00 -2.318930881753050177e-01
3.100000000000000089e+00 -2.554322609104870967e-01
3.109999999999999876e+00 -2.714181793842885826e-01
3.120000000000000107e+00 -2.802799650381817553e-01
3.129999999999999893e+00 -2.801772715488252685e-01
3.140000000000000124e+00 -2.725848394292272880e-01
3.149999999999999911e+00 -2.564537977621744735e-01
3.160000000000000142e+00 -2.334162763756034986e-01
3.169999999999999929e+00 -2.036204810567565360e-01
3.180000000000000160e+00 -1.686251823457177446e-01
3.189999999999999947e+00 -1.295372762411478029e-01
3.200000000000000178e+00 -8.787933328689880030e-02
3.209999999999999964e+00 -4.517053767252747487e-02
3.220000000000000195e+00 -3.017546043237744405e-03
3.229999999999999982e+00 3.730580756491799765e-02
3.240000000000000213e+00 7.398289651301259706e-02
3.250000000000000000e+00 1.065116539958558955e-01
3.260000000000000231e+00 1.330105491868674994e-01
3.270000000000000018e+00 1.537392562653548400e-01
3.280000000000000249e+00 1.674382163277122193e-01
3.290000000000000036e+00 1.746395950768754590e-01
3.300000000000000266e+00 1.750757833104981398e-01
3.310000000000000053e+00 1.694020179766526080e-01
3.320000000000000284e+00 1.583051217827723400e-01
3.330000000000000071e+00 1.425334068690984612e-01
3.339999999999999858e+00 1.233972290009259232e-01
3.350000000000000089e+00 1.018008866876673052e-01
3.359999999999999876e+00 7.916100157424309225e-02
3.370000000000000107e+00 5.663448619089788555e-02
3.379999999999999893e+00 3.525687274358085821e-02
3.390000000000000124e+00 1.630022213040055803e-02
3.399999999999999911e+00 2.932295592354557893e-04
3.410000000000000142e+00 -1.181188099095816652e-02
3.419999999999999929e+00 -1.982931412246825148e-02
3.430000000000000160e+00 -2.347063800925582033e-02
3.439999999999999947e+00 -2.278641934765695751e-02
3.450000000000000178e+00 -1.823105137128287062e-02
3.459999999999999964e+00 -1.006980441812821425e-02
3.470000000000000195e+00 6.921903313369219546e-04
3.479999999999999982e+00 1.352170759807797690e-02
3.490000000000000213e+00 2.726006345901998279e-02
3.500000000000000000e+00 4.102108808380376670e-02
3.510000000000000231e+00 5.388984421105651179e-02
3.520000000000000018e+00 6.482763535669061605e-02
3.530000000000000249e+00 7.323533803353624028e-02
3.540000000000000036e+00 7.833270241062222083e-02
3.550000000000000266e+00 7.975877083167194626e-02
3.560000000000000053e+00 7.732044587405420555e-02
3.570000000000000284e+00 7.085989072314828607e-02
3.580000000000000071e+00 6.087533891818902587e-02
3.589999999999999858e+00 4.745240049418625317e-02
3.600000000000000089e+00 3.162591022636207505e-02
3.609999999999999876e+00 1.383776452075188845e-02
3.620000000000000107e+00 -4.713832177808732413e-03
3.629999999999999893e+00 -2.309382745234400680e-02
3.640000000000000124e+00 -4.029876799769818718e-02
3.649999999999999911e+00 -5.517780906199653418e-02
3.660000000000000142e+00 -6.689566685044659455e-02
3.669999999999999929e+00 -7.455078999792127958e-02
3.680000000000000160e+00 -7.740076773487687689e-02
3.689999999999999947e+00 -7.518551506987047883e-02
3.700000000000000178e+00 -6.722488661652174791e-02
3.709999999999999964e+00 -5.409301960338249587e-02
3.720000000000000195e+00 -3.522668695235797731e-02
3.729999999999999982e+00 -1.191743141781619227e-02
3.740000000000000213e+00 1.599276171541918687e-02
3.750000000000000000e+00 4.698265590579107920e-02
3.760000000000000231e+00 8.048865288124204542e-02
3.770000000000000018e+00 1.151726513980868422e-01
3.780000000000000249e+00 1.499884967854233087e-01
3.790000000000000036e+00 1.837226276498313271e-01
3.800000000000000266e+00 2.153346158874135940e-01
3.810000000000000053e+00 2.436417356691819580e-01
3.820000000000000284e+00 2.680836625281385888e-01
3.830000000000000071e+00 2.874418012565597147e-01
3.839999999999999858e+00 3.019662160244645510e-01
3.850000000000000089e+00 3.104136078767231188e-01
3.859999999999999876e+00 3.137846401978031108e-01
