# [DEFAULT]
# # input and output specifications
# dataformat = QA
# outputtype = gr
# 
# # PDF calculation setup
# mode = xray
# wavelength = 
# composition = Cl4.0Cr1.0Na1.0
# bgscale = 1.0
# rpoly = 0.9
# qmaxinst = 28
# qmin = 0.0
# qmax = 22
# rmin = 0.0
# rmax = 30.0
# rstep = 0.01
# 
# # End of config --------------------------------------------------------------
# 
# #### start data
# #S 1
# #L r(Å)  G(Å$^$)
# 
0.000000000000000000e+00 0.000000000000000000e+00
1.000000000000000021e-02 -3.188688419784613606e-03
2.000000000000000042e-02 -6.488396683139648589e-03
2.999999999999999889e-02 -1.002167658582870345e-02
4.000000000000000083e-02 -1.382593814962386307e-02
5.000000000000000278e-02 -1.794123219507317429e-02
5.999999999999999778e-02 -2.230660701012480290e-02
7.000000000000000666e-02 -2.682321577337863985e-02
8.000000000000000167e-02 -3.130808436629154562e-02
8.999999999999999667e-02 -3.554943576548779544e-02
1.000000000000000056e-01 -3.921605546967318195e-02
1.100000000000000006e-01 -4.209574874259681271e-02
1.199999999999999956e-01 -4.369082465473257681e-02
1.300000000000000044e-01 -4.392429206102359263e-02
1.400000000000000133e-01 -4.223641838374383312e-02
1.499999999999999944e-01 -3.870193495902034958e-02
1.600000000000000033e-01 -3.294871687053143455e-02
1.700000000000000122e-01 -2.514051814140890947e-02
1.799999999999999933e-01 -1.526063268302297639e-02
1.900000000000000022e-01 -3.586257871425781174e-03
2.000000000000000111e-01 9.516283015437223061e-03
2.099999999999999922e-01 2.359458156136850712e-02
2.200000000000000011e-01 3.802665277133442101e-02
2.300000000000000100e-01 5.209213176510113508e-02
2.399999999999999911e-01 6.518454953936107799e-02
2.500000000000000000e-01 7.622197490477768123e-02
2.600000000000000089e-01 8.485212755710025423e-02
2.700000000000000178e-01 8.992947709101563325e-02
2.800000000000000266e-01 9.126941328778137574e-02
2.899999999999999800e-01 8.806560521323346380e-02
2.999999999999999889e-01 8.025907001973985044e-02
3.099999999999999978e-01 6.768971140105847772e-02
3.200000000000000067e-01 5.044329125428027860e-02
3.300000000000000155e-01 2.911908399129852637e-02
3.400000000000000244e-01 4.056851056171735005e-03
3.500000000000000333e-01 -2.353446800953751944e-02
3.599999999999999867e-01 -5.286199964878378343e-02
3.699999999999999956e-01 -8.250696556065933995e-02
3.800000000000000044e-01 -1.110251323810083623e-01
3.900000000000000133e-01 -1.371820570160574293e-01
4.000000000000000222e-01 -1.591780059605696906e-01
4.100000000000000311e-01 -1.759452729415113270e-01
4.199999999999999845e-01 -1.859507128199252013e-01
4.299999999999999933e-01 -1.881804898149344318e-01
4.400000000000000022e-01 -1.819853719344081133e-01
4.500000000000000111e-01 -1.663683450298968636e-01
4.600000000000000200e-01 -1.419651686882081043e-01
4.700000000000000289e-01 -1.079072756698829794e-01
4.799999999999999822e-01 -6.615199610611326164e-02
4.899999999999999911e-01 -1.625516300926058144e-02
5.000000000000000000e-01 3.905350041157822083e-02
5.100000000000000089e-01 9.888897333564967973e-02
5.200000000000000178e-01 1.607178800706019761e-01
5.300000000000000266e-01 2.224912972381810627e-01
5.400000000000000355e-01 2.817474422286932456e-01
5.500000000000000444e-01 3.361177897838827922e-01
5.600000000000000533e-01 3.829774432708937248e-01
5.700000000000000622e-01 4.206470102141836032e-01
5.799999999999999600e-01 4.461302403628737978e-01
5.899999999999999689e-01 4.593524931313482940e-01
5.999999999999999778e-01 4.568927674157148844e-01
6.099999999999999867e-01 4.405970673823961237e-01
6.199999999999999956e-01 4.075862825477664653e-01
6.300000000000000044e-01 3.606704786007692842e-01
6.400000000000000133e-01 2.989442122116441336e-01
6.500000000000000222e-01 2.251777055697015140e-01
6.600000000000000311e-01 1.406381602781911766e-01
6.700000000000000400e-01 4.811881575042808307e-02
6.800000000000000488e-01 -4.961378273953909179e-02
6.900000000000000577e-01 -1.494593691737884367e-01
7.000000000000000666e-01 -2.482894004791982578e-01
7.099999999999999645e-01 -3.423025349022938979e-01
7.199999999999999734e-01 -4.293558438768547147e-01
7.299999999999999822e-01 -5.046020868765477285e-01
7.399999999999999911e-01 -5.675978133116911239e-01
7.500000000000000000e-01 -6.138997017306504489e-01
7.600000000000000089e-01 -6.437872217919442530e-01
7.700000000000000178e-01 -6.546158383622899812e-01
7.800000000000000266e-01 -6.469445011204217888e-01
7.900000000000000355e-01 -6.206144986262237540e-01
8.000000000000000444e-01 -5.763176877426119393e-01
8.100000000000000533e-01 -5.163572151837482194e-01
8.200000000000000622e-01 -4.417116011852938451e-01
8.300000000000000711e-01 -3.564198335291730024e-01
8.399999999999999689e-01 -2.621523659716404331e-01
8.499999999999999778e-01 -1.633867203981059779e-01
8.599999999999999867e-01 -6.308151267140157947e-02
8.699999999999999956e-01 3.513288082700286030e-02
8.800000000000000044e-01 1.274930346692284555e-01
8.900000000000000133e-01 2.112867059337158460e-01
9.000000000000000222e-01 2.832820698625846956e-01
9.100000000000000311e-01 3.412563396708325203e-01
9.200000000000000400e-01 3.837482283806598615e-01
9.300000000000000488e-01 4.087404050073711881e-01
9.400000000000000577e-01 4.172320540721113913e-01
9.500000000000000666e-01 4.073945871803876240e-01
9.599999999999999645e-01 3.826591453262032649e-01
9.699999999999999734e-01 3.416731561052819277e-01
9.799999999999999822e-01 2.892057009105361010e-01
9.899999999999999911e-01 2.259346120050305662e-01
1.000000000000000000e+00 1.560172590200134823e-01
1.010000000000000009e+00 8.196085303105685171e-02
1.020000000000000018e+00 7.362739872950068223e-03
1.030000000000000027e+00 -6.469761474022042713e-02
1.040000000000000036e+00 -1.308947117266107130e-01
1.050000000000000044e+00 -1.889432066528573262e-01
1.060000000000000053e+00 -2.355152626263544435e-01
1.070000000000000062e+00 -2.702193748327985090e-01
1.080000000000000071e+00 -2.896274621475498634e-01
1.090000000000000080e+00 -2.955574594595658522e-01
1.100000000000000089e+00 -2.853609500748196526e-01
1.110000000000000098e+00 -2.620074325235091095e-01
1.120000000000000107e+00 -2.249419236968366043e-01
1.130000000000000115e+00 -1.771246956807461248e-01
1.140000000000000124e+00 -1.200877855964578161e-01
1.150000000000000133e+00 -5.674108502004997223e-02
1.159999999999999920e+00 1.017508149228073602e-02
1.169999999999999929e+00 7.762458762931040424e-02
1.179999999999999938e+00 1.428818543356854820e-01
1.189999999999999947e+00 2.025322035336512005e-01
1.199999999999999956e+00 2.551029475125312085e-01
1.209999999999999964e+00 2.966379133759962650e-01
1.219999999999999973e+00 3.274122598153467734e-01
1.229999999999999982e+00 3.442799630860786664e-01
1.239999999999999991e+00 3.482514434199064923e-01
1.250000000000000000e+00 3.380318516081504132e-01
1.260000000000000009e+00 3.149599647352119280e-01
1.270000000000000018e+00 2.798063564414848825e-01
1.280000000000000027e+00 2.341401621581613579e-01
1.290000000000000036e+00 1.803474420448528126e-01
1.300000000000000044e+00 1.203604702363729184e-01
1.310000000000000053e+00 5.722521962987582589e-02
1.320000000000000062e+00 -6.494401009230930596e-03
1.330000000000000071e+00 -6.822361709047980449e-02
1.340000000000000080e+00 -1.247264314803498420e-01
1.350000000000000089e+00 -1.745022343137514198e-01
1.360000000000000098e+00 -2.145635431623358624e-01
1.370000000000000107e+00 -2.441321109262772071e-01
1.380000000000000115e+00 -2.614889946082407102e-01
1.390000000000000124e+00 -2.662728350824096757e-01
1.400000000000000133e+00 -2.585976356355405015e-01
1.409999999999999920e+00 -2.383985151420476289e-01
1.419999999999999929e+00 -2.075946971625317605e-01
1.429999999999999938e+00 -1.665188037968187984e-01
1.439999999999999947e+00 -1.182952344114076848e-01
1.449999999999999956e+00 -6.393190792891051411e-02
1.459999999999999964e+00 -6.719167536835489105e-03
1.469999999999999973e+00 5.123920955836773483e-02
1.479999999999999982e+00 1.074106502292970777e-01
1.489999999999999991e+00 1.592706427886267095e-01
1.500000000000000000e+00 2.048481048501557267e-01
1.510000000000000009e+00 2.422429872761952541e-01
1.520000000000000018e+00 2.697983545907672309e-01
1.530000000000000027e+00 2.870322167752953346e-01
1.540000000000000036e+00 2.924700766416801767e-01
1.550000000000000044e+00 2.873769311446512931e-01
1.560000000000000053e+00 2.705170167898224287e-01
1.570000000000000062e+00 2.445582389829460968e-01
1.580000000000000071e+00 2.091371012060418699e-01
1.590000000000000080e+00 1.672283438198525762e-01
1.600000000000000089e+00 1.198534657992060826e-01
1.610000000000000098e+00 6.955948571648150336e-02
1.620000000000000107e+00 1.823377618415909784e-02
1.630000000000000115e+00 -3.190290325305088215e-02
1.640000000000000124e+00 -7.901489152716251185e-02
1.650000000000000133e+00 -1.210427059226457380e-01
1.660000000000000142e+00 -1.570396993948410258e-01
1.669999999999999929e+00 -1.849972941061743814e-01
1.679999999999999938e+00 -2.053878016823365016e-01
1.689999999999999947e+00 -2.162861182074097000e-01
1.699999999999999956e+00 -2.194029394943665112e-01
1.709999999999999964e+00 -2.138860598576427241e-01
1.719999999999999973e+00 -2.016144420609735366e-01
1.729999999999999982e+00 -1.830963361354548402e-01
1.739999999999999991e+00 -1.601638981540084716e-01
1.750000000000000000e+00 -1.342594745951985746e-01
1.760000000000000009e+00 -1.071890341741102010e-01
1.770000000000000018e+00 -8.061088375116187699e-02
1.780000000000000027e+00 -5.640561462333366916e-02
1.790000000000000036e+00 -3.568077881008127616e-02
1.800000000000000044e+00 -2.047164074326649277e-02
1.810000000000000053e+00 -1.084081567608504923e-02
1.820000000000000062e+00 -8.652575668995347857e-03
1.830000000000000071e+00 -1.313482115200012047e-02
1.840000000000000080e+00 -2.521125403980748261e-02
1.850000000000000089e+00 -4.385310677437682936e-02
1.860000000000000098e+00 -6.879968003261772991e-02
1.870000000000000107e+00 -9.888857652123148045e-02
1.880000000000000115e+00 -1.329353230282031284e-01
1.890000000000000124e+00 -1.696347458733639124e-01
1.900000000000000133e+00 -2.074386780697731747e-01
1.910000000000000142e+00 -2.448127941861211465e-01
1.919999999999999929e+00 -2.805301858534502979e-01
1.929999999999999938e+00 -3.127480010657870957e-01
1.939999999999999947e+00 -3.410004345287689920e-01
1.949999999999999956e+00 -3.636447454228388110e-01
1.959999999999999964e+00 -3.807409310736232233e-01
1.969999999999999973e+00 -3.914184319589204542e-01
1.979999999999999982e+00 -3.960373335692620733e-01
1.989999999999999991e+00 -3.947355652005667959e-01
2.000000000000000000e+00 -3.880766940577065061e-01
2.010000000000000231e+00 -3.770713163525996614e-01
2.020000000000000018e+00 -3.624935279541168787e-01
2.030000000000000249e+00 -3.457869090993790362e-01
2.040000000000000036e+00 -3.280038892765758107e-01
2.049999999999999822e+00 -3.104399639524297871e-01
2.060000000000000053e+00 -2.944188743766740779e-01
2.069999999999999840e+00 -2.806964529164219235e-01
2.080000000000000071e+00 -2.704389217796184797e-01
2.089999999999999858e+00 -2.639238590988391420e-01
2.100000000000000089e+00 -2.616736129616093476e-01
2.109999999999999876e+00 -2.635765826189769290e-01
2.120000000000000107e+00 -2.692896228048995977e-01
2.129999999999999893e+00 -2.783114493632229958e-01
2.140000000000000124e+00 -2.895698971499526264e-01
2.149999999999999911e+00 -3.020752869781783700e-01
2.160000000000000142e+00 -3.144924294337348436e-01
2.169999999999999929e+00 -3.251899709708981345e-01
2.180000000000000160e+00 -3.331022389375353221e-01
2.189999999999999947e+00 -3.362461335149776742e-01
2.200000000000000178e+00 -3.339173750126088192e-01
2.209999999999999964e+00 -3.244564002707383543e-01
2.220000000000000195e+00 -3.073960569209808202e-01
2.229999999999999982e+00 -2.820226688653748592e-01
2.240000000000000213e+00 -2.480567109797149894e-01
2.250000000000000000e+00 -2.060581675812382385e-01
2.260000000000000231e+00 -1.560148303772688205e-01
2.270000000000000018e+00 -9.967724218978020467e-02
2.280000000000000249e+00 -3.753356107736225550e-02
2.290000000000000036e+00 2.801380716540231852e-02
2.300000000000000266e+00 9.554960554154957875e-02
2.310000000000000053e+00 1.627840965521451522e-01
2.319999999999999840e+00 2.274591689485083723e-01
2.330000000000000071e+00 2.876143117230532953e-01
2.339999999999999858e+00 3.409233865052775370e-01
2.350000000000000089e+00 3.855471698721418816e-01
2.359999999999999876e+00 4.200107836443995324e-01
2.370000000000000107e+00 4.424236297432331821e-01
2.379999999999999893e+00 4.528695820711818310e-01
2.390000000000000124e+00 4.493764448673445155e-01
2.399999999999999911e+00 4.338844627877204152e-01
2.410000000000000142e+00 4.045194728332004441e-01
2.419999999999999929e+00 3.645382306401989125e-01
2.430000000000000160e+00 3.135198713595583886e-01
2.439999999999999947e+00 2.545557005908333781e-01
2.450000000000000178e+00 1.889311837262174498e-01
2.459999999999999964e+00 1.194449284961180552e-01
2.470000000000000195e+00 4.837953108328505586e-02
2.479999999999999982e+00 -2.155884713066386418e-02
2.490000000000000213e+00 -8.810527331659090411e-02
2.500000000000000000e+00 -1.483870385627196475e-01
2.510000000000000231e+00 -2.011723098525924902e-01
2.520000000000000018e+00 -2.432325981273682769e-01
2.530000000000000249e+00 -2.749693858510199873e-01
2.540000000000000036e+00 -2.932763276037771982e-01
2.550000000000000266e+00 -2.997156045119646617e-01
2.560000000000000053e+00 -2.925913081938457116e-01
2.569999999999999840e+00 -2.736093578959664652e-01
2.580000000000000071e+00 -2.429142610308165362e-01
2.589999999999999858e+00 -2.022097249119126361e-01
2.600000000000000089e+00 -1.531679733473163552e-01
2.609999999999999876e+00 -9.755341963736478827e-02
2.620000000000000107e+00 -3.783292116105128194e-02
2.629999999999999893e+00 2.396639362819786775e-02
2.640000000000000124e+00 8.553874706217484691e-02
2.649999999999999911e+00 1.443645023281973361e-01
2.660000000000000142e+00 1.990418968916212727e-01
2.669999999999999929e+00 2.469915724878773700e-01
2.680000000000000160e+00 2.876251136103270545e-01
2.689999999999999947e+00 3.191273657931926189e-01
2.700000000000000178e+00 3.413537980701067398e-01
2.709999999999999964e+00 3.538094268364581629e-01
2.720000000000000195e+00 3.565872114470552412e-01
2.729999999999999982e+00 3.506095582185665971e-01
2.740000000000000213e+00 3.361683497921378883e-01
2.750000000000000000e+00 3.152601490349291047e-01
2.760000000000000231e+00 2.884822944031148473e-01
2.770000000000000018e+00 2.582080491340371098e-01
2.780000000000000249e+00 2.255997134426547812e-01
2.790000000000000036e+00 1.926255199299245491e-01
2.800000000000000266e+00 1.608656832084537636e-01
2.810000000000000053e+00 1.316636368952518454e-01
2.819999999999999840e+00 1.063818812446892526e-01
2.830000000000000071e+00 8.591677671189837384e-02
2.839999999999999858e+00 7.083655247471266903e-02
2.850000000000000089e+00 6.170979714647296249e-02
2.859999999999999876e+00 5.806187591628979988e-02
2.870000000000000107e+00 6.013816944264599451e-02
2.879999999999999893e+00 6.655735479027763413e-02
2.890000000000000124e+00 7.712794573837566947e-02
2.899999999999999911e+00 9.007913840730481791e-02
2.910000000000000142e+00 1.044735605962216762e-01
2.919999999999999929e+00 1.187868372957694013e-01
2.930000000000000160e+00 1.316347055860582482e-01
2.939999999999999947e+00 1.417552733809940846e-01
2.950000000000000178e+00 1.479400724004488188e-01
2.959999999999999964e+00 1.491072012010483117e-01
2.970000000000000195e+00 1.447788724710130925e-01
2.979999999999999982e+00 1.340154027632489142e-01
2.990000000000000213e+00 1.173715600078367727e-01
3.000000000000000000e+00 9.411879563465015697e-02
3.010000000000000231e+00 6.573593642358568911e-02
3.020000000000000018e+00 3.207881157304809383e-02
3.030000000000000249e+00 -5.037690217896250572e-03
3.040000000000000036e+00 -4.481666916453708877e-02
3.050000000000000266e+00 -8.558224003197120733e-02
3.060000000000000053e+00 -1.259184230405987481e-01
3.070000000000000284e+00 -1.642242866446982363e-01
3.080000000000000071e+00 -1.991086706953389962e-01
3.089999999999999858e+00 -2.289305189926612860e-01
3.100000000000000089e+00 -2.529687756385164410e-01
3.109999999999999876e+00 -2.694612657911754638e-01
3.120000000000000107e+00 -2.788236712724896926e-01
3.129999999999999893e+00 -2.791991698028923330e-01
3.140000000000000124e+00 -2.720547983929672564e-01
3.149999999999999911e+00 -2.563251250457823649e-01
3.160000000000000142e+00 -2.336399262055576798e-01
3.169999999999999929e+00 -2.041368596352946818e-01
3.180000000000000160e+00 -1.693760511466515795e-01
3.189999999999999947e+00 -1.304639218854541927e-01
3.200000000000000178e+00 -8.892784342671569697e-02
3.209999999999999964e+00 -4.629692440737680909e-02
3.220000000000000195e+00 -4.187098150564252247e-03
3.229999999999999982e+00 3.611120889077840818e-02
3.240000000000000213e+00 7.276559899696431744e-02
3.250000000000000000e+00 1.052574413189876074e-01
3.260000000000000231e+00 1.316820176922803565e-01
3.270000000000000018e+00 1.522875599774507760e-01
3.280000000000000249e+00 1.657905126380820882e-01
3.290000000000000036e+00 1.727156491953726614e-01
3.300000000000000266e+00 1.727794954326121457e-01
3.310000000000000053e+00 1.666331022783065219e-01
3.320000000000000284e+00 1.549622510190037938e-01
3.330000000000000071e+00 1.385149261803296783e-01
3.339999999999999858e+00 1.186172850669060252e-01
3.350000000000000089e+00 9.618001179414045754e-02
3.359999999999999876e+00 7.264834157782273927e-02
3.370000000000000107e+00 4.919729914084332995e-02
3.379999999999999893e+00 2.689471242917043647e-02
3.390000000000000124e+00 7.046140661729795307e-03
3.399999999999999911e+00 -9.790965880954610040e-03
3.410000000000000142e+00 -2.262392220186664263e-02
3.419999999999999929e+00 -3.123946406293307693e-02
3.430000000000000160e+00 -3.531610180712706215e-02
3.439999999999999947e+00 -3.487527889649836427e-02
3.450000000000000178e+00 -3.035948063076341491e-02
3.459999999999999964e+00 -2.200196891071268951e-02
3.470000000000000195e+00 -1.082621528768400523e-02
3.479999999999999982e+00 2.667366328671145429e-03
3.490000000000000213e+00 1.727250846832064854e-02
3.500000000000000000e+00 3.212338533847036715e-02
3.510000000000000231e+00 4.624536126960789723e-02
3.520000000000000018e+00 5.858889619025521578e-02
3.530000000000000249e+00 6.850000544810727621e-02
3.540000000000000036e+00 7.516048788838161632e-02
3.550000000000000266e+00 7.815622227758789453e-02
3.560000000000000053e+00 7.724612131572475282e-02
3.570000000000000284e+00 7.221560227276485611e-02
3.580000000000000071e+00 6.352560014042937797e-02
3.589999999999999858e+00 5.119634472128673647e-02
3.600000000000000089e+00 3.625548177294189017e-02
3.609999999999999876e+00 1.906867510793743350e-02
3.620000000000000107e+00 8.616536813289080990e-04
3.629999999999999893e+00 -1.748945331627888011e-02
3.640000000000000124e+00 -3.494305181194436172e-02
3.649999999999999911e+00 -5.036830862469401926e-02
3.660000000000000142e+00 -6.289055362577369857e-02
3.669999999999999929e+00 -7.158702323350635277e-02
3.680000000000000160e+00 -7.567425351613096818e-02
3.689999999999999947e+00 -7.484064156947860258e-02
3.700000000000000178e+00 -6.835857713277497527e-02
3.709999999999999964e+00 -5.674047541965214492e-02
3.720000000000000195e+00 -3.936216466013056636e-02
3.729999999999999982e+00 -1.746639237759171209e-02
3.740000000000000213e+00 9.181161301106464598e-03
3.750000000000000000e+00 3.908398895341112789e-02
3.760000000000000231e+00 7.174854553749453190e-02
3.770000000000000018e+00 1.058479786852796201e-01
3.780000000000000249e+00 1.403772487143873926e-01
3.790000000000000036e+00 1.741272358814389132e-01
3.800000000000000266e+00 2.060569788333957986e-01
3.810000000000000053e+00 2.349837072439365515e-01
3.820000000000000284e+00 2.603046200256966536e-01
3.830000000000000071e+00 2.807937347317730481e-01
3.839999999999999858e+00 2.966290338395889403e-01
3.850000000000000089e+00 3.065453272321476685e-01
3.859999999999999876e+00 3.114647240409171292e-01
