# [DEFAULT]
# # input and output specifications
# dataformat = QA
# outputtype = gr
# 
# # PDF calculation setup
# mode = xray
# wavelength = 
# composition = Cl4.0Cr1.0Na1.0
# bgscale = 1.0
# rpoly = 0.9
# qmaxinst = 28
# qmin = 0.0
# qmax = 22
# rmin = 0.0
# rmax = 30.0
# rstep = 0.01
# 
# # End of config --------------------------------------------------------------
# 
# #### start data
# #S 1
# #L r(Å)  G(Å$^$)
# 
0.000000000000000000e+00 0.000000000000000000e+00
1.000000000000000021e-02 -2.965701678953817921e-03
2.000000000000000042e-02 -6.039413329899377333e-03
2.999999999999999889e-02 -9.340741189180394935e-03
4.000000000000000083e-02 -1.290704417994946104e-02
5.000000000000000278e-02 -1.677934011184914476e-02
5.999999999999999778e-02 -2.090125619814773433e-02
7.000000000000000666e-02 -2.518064902673324001e-02
8.000000000000000167e-02 -2.944516667482750122e-02
8.999999999999999667e-02 -3.349338509911110873e-02
1.000000000000000056e-01 -3.701195138962675574e-02
1.100000000000000006e-01 -3.979669895174719335e-02
1.199999999999999956e-01 -4.137539857959944556e-02
1.300000000000000044e-01 -4.167046354674854708e-02
1.400000000000000133e-01 -4.014861208373444318e-02
1.499999999999999944e-01 -3.687586970119469121e-02
1.600000000000000033e-01 -3.149454663310798097e-02
1.700000000000000122e-01 -2.415518503251157245e-02
1.799999999999999933e-01 -1.483642849131437506e-02
1.900000000000000022e-01 -3.796194008138880759e-03
2.000000000000000111e-01 8.621963662176670984e-03
2.099999999999999922e-01 2.199419694166297734e-02
2.200000000000000011e-01 3.573048560710469918e-02
2.300000000000000100e-01 4.915241114523759280e-02
2.399999999999999911e-01 6.167923437989403235e-02
2.500000000000000000e-01 7.228740363445541883e-02
2.600000000000000089e-01 8.063273249712432644e-02
2.700000000000000178e-01 8.562443374170494725e-02
2.800000000000000266e-01 8.707583434655259691e-02
2.899999999999999800e-01 8.421053800583214177e-02
2.999999999999999889e-01 7.695837632968052788e-02
3.099999999999999978e-01 6.515206559329705938e-02
3.200000000000000067e-01 4.885422565561295394e-02
3.300000000000000155e-01 2.862003090528010552e-02
3.400000000000000244e-01 4.746660547092575004e-03
3.500000000000000333e-01 -2.162281108289042936e-02
3.599999999999999867e-01 -4.976856656034060744e-02
3.699999999999999956e-01 -7.833424770729349729e-02
3.800000000000000044e-01 -1.059807486613028871e-01
3.900000000000000133e-01 -1.315177158903203525e-01
4.000000000000000222e-01 -1.532522167211920472e-01
4.100000000000000311e-01 -1.701498935341806129e-01
4.199999999999999845e-01 -1.807477601913494436e-01
4.299999999999999933e-01 -1.840577628890164019e-01
4.400000000000000022e-01 -1.794345116024587128e-01
4.500000000000000111e-01 -1.658951103251077586e-01
4.600000000000000200e-01 -1.440016516343047281e-01
4.700000000000000289e-01 -1.128731858436242408e-01
4.799999999999999822e-01 -7.433044497344613866e-02
4.899999999999999911e-01 -2.786425835069919824e-02
5.000000000000000000e-01 2.395559217258143303e-02
5.100000000000000089e-01 8.038834931497973457e-02
5.200000000000000178e-01 1.390492322520671675e-01
5.300000000000000266e-01 1.980783177704291964e-01
5.400000000000000355e-01 2.551661385854863684e-01
5.500000000000000444e-01 3.081115487090673177e-01
5.600000000000000533e-01 3.544634257150220402e-01
5.700000000000000622e-01 3.926188721321100528e-01
5.799999999999999600e-01 4.197880081325833235e-01
5.899999999999999689e-01 4.358273047950870782e-01
5.999999999999999778e-01 4.375506202949072110e-01
6.099999999999999867e-01 4.265863720920216595e-01
6.199999999999999956e-01 4.002328306074003361e-01
6.300000000000000044e-01 3.610255147339034854e-01
6.400000000000000133e-01 3.080728971894411417e-01
6.500000000000000222e-01 2.438884593703381232e-01
6.600000000000000311e-01 1.695909449068588315e-01
6.700000000000000400e-01 8.771866085284549253e-02
6.800000000000000488e-01 7.943687783750486009e-04
6.900000000000000577e-01 -8.836689277882367466e-02
7.000000000000000666e-01 -1.768782472991222710e-01
7.099999999999999645e-01 -2.612927923647146433e-01
7.199999999999999734e-01 -3.395987035277944210e-01
7.299999999999999822e-01 -4.074058493876490661e-01
7.399999999999999911e-01 -4.642484439361671544e-01
7.500000000000000000e-01 -5.060977647932871637e-01
7.600000000000000089e-01 -5.331743709554078725e-01
7.700000000000000178e-01 -5.430843943879832825e-01
7.800000000000000266e-01 -5.363325993907395173e-01
7.900000000000000355e-01 -5.127919454824906298e-01
8.000000000000000444e-01 -4.731199505122191118e-01
8.100000000000000533e-01 -4.194309711156213871e-01
8.200000000000000622e-01 -3.526790601262065894e-01
8.300000000000000711e-01 -2.765447805836868667e-01
8.399999999999999689e-01 -1.926519803813351583e-01
8.499999999999999778e-01 -1.050524900738371153e-01
8.599999999999999867e-01 -1.656197446186288141e-02
8.699999999999999956e-01 6.955417116248689691e-02
8.800000000000000044e-01 1.497774184607553738e-01
8.900000000000000133e-01 2.216703541442122116e-01
9.000000000000000222e-01 2.822579022953078387e-01
9.100000000000000311e-01 3.295426340096522799e-01
9.200000000000000400e-01 3.622316575812081774e-01
9.300000000000000488e-01 3.785179252325782118e-01
9.400000000000000577e-01 3.794118094259361640e-01
9.500000000000000666e-01 3.632982878189308096e-01
9.599999999999999645e-01 3.334377565067588867e-01
9.699999999999999734e-01 2.886921111890674574e-01
9.799999999999999822e-01 2.335364555532365993e-01
9.899999999999999911e-01 1.687333021264131039e-01
1.000000000000000000e+00 9.817744210673332028e-02
1.010000000000000009e+00 2.431027780603081667e-02
1.020000000000000018e+00 -4.949086691704450425e-02
1.030000000000000027e+00 -1.203051041656366255e-01
1.040000000000000036e+00 -1.849958706131881181e-01
1.050000000000000044e+00 -2.414543977755244375e-01
1.060000000000000053e+00 -2.865291637305534267e-01
1.070000000000000062e+00 -3.199526485046007007e-01
1.080000000000000071e+00 -3.384763624263069648e-01
1.090000000000000080e+00 -3.439481338613911143e-01
1.100000000000000089e+00 -3.338829341535784478e-01
1.110000000000000098e+00 -3.112062517454865507e-01
1.120000000000000107e+00 -2.754532969107529872e-01
1.130000000000000115e+00 -2.295175340810101661e-01
1.140000000000000124e+00 -1.749283531202110442e-01
1.150000000000000133e+00 -1.145219582819570203e-01
1.159999999999999920e+00 -5.096009483097001941e-02
1.169999999999999929e+00 1.279863271546795647e-02
1.179999999999999938e+00 7.414564920048447028e-02
1.189999999999999947e+00 1.297534008192537669e-01
1.199999999999999956e+00 1.782588495941132833e-01
1.209999999999999964e+00 2.158115070635492350e-01
1.219999999999999973e+00 2.427553050065234808e-01
1.229999999999999982e+00 2.560515534194011678e-01
1.239999999999999991e+00 2.567433409628711583e-01
1.250000000000000000e+00 2.436133599098747049e-01
1.260000000000000009e+00 2.180159126849200990e-01
1.270000000000000018e+00 1.807493281655175865e-01
1.280000000000000027e+00 1.333953141512322915e-01
1.290000000000000036e+00 7.831510070367979359e-02
1.300000000000000044e+00 1.745917247775631564e-02
1.310000000000000053e+00 -4.619329427681378303e-02
1.320000000000000062e+00 -1.100506688628123259e-01
1.330000000000000071e+00 -1.716251231010759992e-01
1.340000000000000080e+00 -2.276555733608995602e-01
1.350000000000000089e+00 -2.767151717314071391e-01
1.360000000000000098e+00 -3.158076224906000706e-01
1.370000000000000107e+00 -3.441974029599688123e-01
1.380000000000000115e+00 -3.601687402411890004e-01
1.390000000000000124e+00 -3.633776388154886794e-01
1.400000000000000133e+00 -3.539489939349040881e-01
1.409999999999999920e+00 -3.318170344838804464e-01
1.419999999999999929e+00 -2.989215210042313053e-01
1.429999999999999938e+00 -2.555845262691617270e-01
1.439999999999999947e+00 -2.049647307051870593e-01
1.449999999999999956e+00 -1.480608658567006963e-01
1.459999999999999964e+00 -8.820932275698534220e-02
1.469999999999999973e+00 -2.752819296139530358e-02
1.479999999999999982e+00 3.140262211499512263e-02
1.489999999999999991e+00 8.601667733013249051e-02
1.500000000000000000e+00 1.342889097081432503e-01
1.510000000000000009e+00 1.742622299741058423e-01
1.520000000000000018e+00 2.042121681296445723e-01
1.530000000000000027e+00 2.236073765211271380e-01
1.540000000000000036e+00 2.308866434280714419e-01
1.550000000000000044e+00 2.273009730257560812e-01
1.560000000000000053e+00 2.115076416351529820e-01
1.570000000000000062e+00 1.862132824273400322e-01
1.580000000000000071e+00 1.509549544299789436e-01
1.590000000000000080e+00 1.087808325363529977e-01
1.600000000000000089e+00 6.067164314365258021e-02
1.610000000000000098e+00 9.254303387253951310e-03
1.620000000000000107e+00 -4.355008798076938359e-02
1.630000000000000115e+00 -9.543075732237045472e-02
1.640000000000000124e+00 -1.444594829139383974e-01
1.650000000000000133e+00 -1.884660742790118804e-01
1.660000000000000142e+00 -2.263902765914924953e-01
1.669999999999999929e+00 -2.560780281937115599e-01
1.679999999999999938e+00 -2.779191098779187907e-01
1.689999999999999947e+00 -2.897968260081449365e-01
1.699999999999999956e+00 -2.934036011763312413e-01
1.709999999999999964e+00 -2.877085047276336516e-01
1.719999999999999973e+00 -2.746057583651836942e-01
1.729999999999999982e+00 -2.545009198579150089e-01
1.739999999999999991e+00 -2.292606612449976378e-01
1.750000000000000000e+00 -2.003337134604653569e-01
1.760000000000000009e+00 -1.695797811055215487e-01
1.770000000000000018e+00 -1.387703428955505969e-01
1.780000000000000027e+00 -1.098712889004034854e-01
1.790000000000000036e+00 -8.417077593544110281e-02
1.800000000000000044e+00 -6.384237417006888293e-02
1.810000000000000053e+00 -4.913053661491130486e-02
1.820000000000000062e+00 -4.210342905514707218e-02
1.830000000000000071e+00 -4.211961121213495668e-02
1.840000000000000080e+00 -5.031710158855448589e-02
1.850000000000000089e+00 -6.575214328364435701e-02
1.860000000000000098e+00 -8.830651034991751636e-02
1.870000000000000107e+00 -1.168662643554453234e-01
1.880000000000000115e+00 -1.502547639873957341e-01
1.890000000000000124e+00 -1.871727083385918144e-01
1.900000000000000133e+00 -2.259263918146513228e-01
1.910000000000000142e+00 -2.649170902205275624e-01
1.919999999999999929e+00 -3.026572422483692071e-01
1.929999999999999938e+00 -3.371205923442395780e-01
1.939999999999999947e+00 -3.675489752728205994e-01
1.949999999999999956e+00 -3.919706711674566524e-01
1.959999999999999964e+00 -4.101798894824645325e-01
1.969999999999999973e+00 -4.209173511971524007e-01
1.979999999999999982e+00 -4.242801850288642207e-01
1.989999999999999991e+00 -4.200964345099810204e-01
2.000000000000000000e+00 -4.086438435189243545e-01
2.010000000000000231e+00 -3.908348409962018044e-01
2.020000000000000018e+00 -3.671281559796519267e-01
2.030000000000000249e+00 -3.391694363114433619e-01
2.040000000000000036e+00 -3.076953671678028801e-01
2.049999999999999822e+00 -2.744884013557975511e-01
2.060000000000000053e+00 -2.407123446640187237e-01
2.069999999999999840e+00 -2.077204606114892993e-01
2.080000000000000071e+00 -1.768485476132955203e-01
2.089999999999999858e+00 -1.489452630842723890e-01
2.100000000000000089e+00 -1.249811619876665947e-01
2.109999999999999876e+00 -1.054347651749546894e-01
2.120000000000000107e+00 -9.050746860746668176e-02
2.129999999999999893e+00 -8.037675434755336967e-02
2.140000000000000124e+00 -7.438109728753734828e-02
2.149999999999999911e+00 -7.236670189684459020e-02
2.160000000000000142e+00 -7.304728901257126483e-02
2.169999999999999929e+00 -7.582191941695064219e-02
2.180000000000000160e+00 -7.926702201341369325e-02
2.189999999999999947e+00 -8.222816831332081799e-02
2.200000000000000178e+00 -8.356749130756682686e-02
2.209999999999999964e+00 -8.197155187788522646e-02
2.220000000000000195e+00 -7.655130153942492355e-02
2.229999999999999982e+00 -6.639898007359758270e-02
2.240000000000000213e+00 -5.081166712036912919e-02
2.250000000000000000e+00 -2.970866695133236174e-02
2.260000000000000231e+00 -2.578963267316681032e-03
2.270000000000000018e+00 2.969476818943566493e-02
2.280000000000000249e+00 6.731536843491452149e-02
2.290000000000000036e+00 1.086861220798720912e-01
2.300000000000000266e+00 1.533540862898193358e-01
2.310000000000000053e+00 1.995894371247394217e-01
2.319999999999999840e+00 2.461526873429208118e-01
2.330000000000000071e+00 2.914910577984002327e-01
2.339999999999999858e+00 3.340360082317084256e-01
2.350000000000000089e+00 3.723110585450841725e-01
2.359999999999999876e+00 4.050856607314712310e-01
2.370000000000000107e+00 4.308452243959917105e-01
2.379999999999999893e+00 4.492824648495900575e-01
2.390000000000000124e+00 4.587993860088794840e-01
2.399999999999999911e+00 4.603489699360122644e-01
2.410000000000000142e+00 4.523345372477736714e-01
2.419999999999999929e+00 4.367118774423380256e-01
2.430000000000000160e+00 4.128362612420837796e-01
2.439999999999999947e+00 3.826611143776605384e-01
2.450000000000000178e+00 3.467633242087590495e-01
2.459999999999999964e+00 3.069436704858647391e-01
2.470000000000000195e+00 2.645979196387905352e-01
2.479999999999999982e+00 2.214582486481894152e-01
2.490000000000000213e+00 1.790831975574545543e-01
2.500000000000000000e+00 1.392762334761794563e-01
2.510000000000000231e+00 1.030626352116603139e-01
2.520000000000000018e+00 7.242529048836041095e-02
2.530000000000000249e+00 4.739767981070922009e-02
2.540000000000000036e+00 2.986740670173257048e-02
2.550000000000000266e+00 1.907229237784281370e-02
2.560000000000000053e+00 1.603001712327525863e-02
2.569999999999999840e+00 1.976642196840515744e-02
2.580000000000000071e+00 3.014741212414673299e-02
2.589999999999999858e+00 4.609507614017840926e-02
2.600000000000000089e+00 6.652240597808835310e-02
2.609999999999999876e+00 9.022294855036069872e-02
2.620000000000000107e+00 1.156522970215833335e-01
2.629999999999999893e+00 1.413648676433805207e-01
2.640000000000000124e+00 1.660086760613145307e-01
2.649999999999999911e+00 1.877807166637876501e-01
2.660000000000000142e+00 2.059954696456707812e-01
2.669999999999999929e+00 2.189020097858781488e-01
2.680000000000000160e+00 2.263410254263528432e-01
2.689999999999999947e+00 2.272083019825248407e-01
2.700000000000000178e+00 2.216408758917161881e-01
2.709999999999999964e+00 2.095216863789241823e-01
2.720000000000000195e+00 1.911863538797337891e-01
2.729999999999999982e+00 1.674969587746812927e-01
2.740000000000000213e+00 1.390095214958493031e-01
2.750000000000000000e+00 1.072331283127659629e-01
2.760000000000000231e+00 7.306243576219864644e-02
2.770000000000000018e+00 3.809798587501803807e-02
2.780000000000000249e+00 3.706687543962078682e-03
2.790000000000000036e+00 -2.890503980406723336e-02
2.800000000000000266e+00 -5.820102041278404220e-02
2.810000000000000053e+00 -8.337390790226793802e-02
2.819999999999999840e+00 -1.032732005575392048e-01
2.830000000000000071e+00 -1.173414404439522829e-01
2.839999999999999858e+00 -1.252487287126180238e-01
2.850000000000000089e+00 -1.266024047939569019e-01
2.859999999999999876e+00 -1.220476105514390064e-01
2.870000000000000107e+00 -1.113754132732450441e-01
2.879999999999999893e+00 -9.604279519148777033e-02
2.890000000000000124e+00 -7.614475197509201765e-02
2.899999999999999911e+00 -5.345574054967976857e-02
2.910000000000000142e+00 -2.872743968441408141e-02
2.919999999999999929e+00 -3.432543167962552426e-03
2.930000000000000160e+00 2.124846723835838863e-02
2.939999999999999947e+00 4.413801453344284864e-02
2.950000000000000178e+00 6.416384254565798972e-02
2.959999999999999964e+00 8.034198685025020770e-02
2.970000000000000195e+00 9.218658778058348713e-02
2.979999999999999982e+00 9.884420496859870620e-02
2.990000000000000213e+00 1.006811485599028722e-01
3.000000000000000000e+00 9.699939492453758805e-02
3.010000000000000231e+00 8.894335001517245098e-02
3.020000000000000018e+00 7.625415859795034446e-02
3.030000000000000249e+00 6.036903667574347598e-02
3.040000000000000036e+00 4.177824680956495479e-02
3.050000000000000266e+00 2.178913665464891208e-02
3.060000000000000053e+00 1.406729329743776347e-03
3.070000000000000284e+00 -1.816552366476739677e-02
3.080000000000000071e+00 -3.589934573418700203e-02
3.089999999999999858e+00 -5.062613585361329382e-02
3.100000000000000089e+00 -6.178033018722489667e-02
3.109999999999999876e+00 -6.818278730807417198e-02
3.120000000000000107e+00 -7.006939408340764897e-02
3.129999999999999893e+00 -6.628420361838417707e-02
3.140000000000000124e+00 -5.780810291787625427e-02
3.149999999999999911e+00 -4.408429958600397491e-02
3.160000000000000142e+00 -2.625125316828833683e-02
3.169999999999999929e+00 -4.585632027939491942e-03
3.180000000000000160e+00 1.977478776334079535e-02
3.189999999999999947e+00 4.593776864816611488e-02
3.200000000000000178e+00 7.274434169642046699e-02
3.209999999999999964e+00 9.912186487946061941e-02
3.220000000000000195e+00 1.238162069561115908e-01
3.229999999999999982e+00 1.460714717348073344e-01
3.240000000000000213e+00 1.644742406101898646e-01
3.250000000000000000e+00 1.789443190844914600e-01
3.260000000000000231e+00 1.880891230755510901e-01
3.270000000000000018e+00 1.924106766840020522e-01
3.280000000000000249e+00 1.911124207754530402e-01
3.290000000000000036e+00 1.848598819055181364e-01
3.300000000000000266e+00 1.736859623953803389e-01
3.310000000000000053e+00 1.583383956721459429e-01
3.320000000000000284e+00 1.395607379609195287e-01
3.330000000000000071e+00 1.181941173420226893e-01
3.339999999999999858e+00 9.534896958160639369e-02
3.350000000000000089e+00 7.203315887495680137e-02
3.359999999999999876e+00 4.925651661123631869e-02
3.370000000000000107e+00 2.827429499401851176e-02
3.379999999999999893e+00 9.634504047523726605e-03
3.390000000000000124e+00 -5.424913519282897889e-03
3.399999999999999911e+00 -1.675905396785941706e-02
3.410000000000000142e+00 -2.357592248678464994e-02
3.419999999999999929e+00 -2.596706494463597165e-02
3.430000000000000160e+00 -2.384100226798104710e-02
3.439999999999999947e+00 -1.745379267342778845e-02
3.450000000000000178e+00 -7.411427871705659857e-03
3.459999999999999964e+00 5.853721680965357985e-03
3.470000000000000195e+00 2.128115131400608664e-02
3.479999999999999982e+00 3.818380422762052140e-02
3.490000000000000213e+00 5.545172744460521996e-02
3.500000000000000000e+00 7.206459465122051766e-02
3.510000000000000231e+00 8.720915832462051986e-02
3.520000000000000018e+00 9.977452682071880075e-02
3.530000000000000249e+00 1.092439517397379573e-01
3.540000000000000036e+00 1.148239650492660080e-01
3.550000000000000266e+00 1.161965644588705965e-01
3.560000000000000053e+00 1.131902012124018919e-01
3.570000000000000284e+00 1.056381048222730656e-01
3.580000000000000071e+00 9.407680386467173750e-02
3.589999999999999858e+00 7.852121169999855266e-02
3.600000000000000089e+00 6.005922558662742800e-02
3.609999999999999876e+00 3.899047629440678675e-02
3.620000000000000107e+00 1.657796947765641585e-02
3.629999999999999893e+00 -6.406369348154502055e-03
3.640000000000000124e+00 -2.892301066742603705e-02
3.649999999999999911e+00 -4.995392261376416926e-02
3.660000000000000142e+00 -6.866396700817682663e-02
3.669999999999999929e+00 -8.421675854035051700e-02
3.680000000000000160e+00 -9.590149114334169111e-02
3.689999999999999947e+00 -1.034272360022535364e-01
3.700000000000000178e+00 -1.061660107421008720e-01
3.709999999999999964e+00 -1.045548273959714947e-01
3.720000000000000195e+00 -9.808218548805971992e-02
3.729999999999999982e+00 -8.781952890687132196e-02
3.740000000000000213e+00 -7.360794570252228441e-02
3.750000000000000000e+00 -5.673219689041785613e-02
3.760000000000000231e+00 -3.765224954288133585e-02
3.770000000000000018e+00 -1.750018791303225088e-02
3.780000000000000249e+00 2.852466824814933050e-03
3.790000000000000036e+00 2.238922682740056291e-02
3.800000000000000266e+00 4.024640345264247909e-02
3.810000000000000053e+00 5.545564696025581664e-02
3.820000000000000284e+00 6.756325314175500030e-02
3.830000000000000071e+00 7.560611793372519485e-02
3.839999999999999858e+00 7.981073690668882836e-02
3.850000000000000089e+00 7.924506801287165003e-02
3.859999999999999876e+00 7.475813787742222050e-02
