# [DEFAULT]
# # input and output specifications
# dataformat = QA
# outputtype = gr
# 
# # PDF calculation setup
# mode = xray
# wavelength = 
# composition = Cl4.0Cr1.0Na1.0
# bgscale = 1.0
# rpoly = 0.9
# qmaxinst = 28
# qmin = 0.0
# qmax = 22
# rmin = 0.0
# rmax = 30.0
# rstep = 0.01
# 
# # End of config --------------------------------------------------------------
# 
# #### start data
# #S 1
# #L r(Å)  G(Å$^$)
# 
0.000000000000000000e+00 0.000000000000000000e+00
1.000000000000000021e-02 -3.925503160672077531e-03
2.000000000000000042e-02 -7.918790743861389356e-03
2.999999999999999889e-02 -1.204992353542417780e-02
4.000000000000000083e-02 -1.632953071490080010e-02
5.000000000000000278e-02 -2.075593002128196807e-02
5.999999999999999778e-02 -2.525437192121132365e-02
7.000000000000000666e-02 -2.971249960522857197e-02
8.000000000000000167e-02 -3.394458062713855140e-02
8.999999999999999667e-02 -3.775978199024378201e-02
1.000000000000000056e-01 -4.083647723516596606e-02
1.100000000000000006e-01 -4.301064322235011866e-02
1.199999999999999956e-01 -4.381095456988048226e-02
1.300000000000000044e-01 -4.321717144638540647e-02
1.400000000000000133e-01 -4.071755487538545465e-02
1.499999999999999944e-01 -3.643308660306508046e-02
1.600000000000000033e-01 -3.004840827774053411e-02
1.700000000000000122e-01 -2.176056797081124539e-02
1.799999999999999933e-01 -1.159510793004380966e-02
1.900000000000000022e-01 1.479894547575149114e-04
2.000000000000000111e-01 1.309369958870930731e-02
2.099999999999999922e-01 2.677739899371891011e-02
2.200000000000000011e-01 4.060878853538083672e-02
2.300000000000000100e-01 5.387024716993292495e-02
2.399999999999999911e-01 6.601888198830824228e-02
2.500000000000000000e-01 7.599895759793212635e-02
2.600000000000000089e-01 8.353151833649093139e-02
2.700000000000000178e-01 8.752936310460568414e-02
2.800000000000000266e-01 8.787002489364011126e-02
2.899999999999999800e-01 8.381814788215621870e-02
2.999999999999999889e-01 7.536837165902759983e-02
3.099999999999999978e-01 6.241368433644231550e-02
3.200000000000000067e-01 4.508773813616125808e-02
3.300000000000000155e-01 2.399948161729926685e-02
3.400000000000000244e-01 -4.702836169602400002e-04
3.500000000000000333e-01 -2.715831983180717890e-02
3.599999999999999867e-01 -5.524527753580464606e-02
3.699999999999999956e-01 -8.340287444242583392e-02
3.800000000000000044e-01 -1.102006293076626120e-01
3.900000000000000133e-01 -1.345057932801570488e-01
4.000000000000000222e-01 -1.545841834622826150e-01
4.100000000000000311e-01 -1.694642885443514435e-01
4.199999999999999845e-01 -1.777058546409277795e-01
4.299999999999999933e-01 -1.783914271875080559e-01
4.400000000000000022e-01 -1.709518903960551839e-01
4.500000000000000111e-01 -1.544934608062080716e-01
4.600000000000000200e-01 -1.296800532035038145e-01
4.700000000000000289e-01 -9.575547452029338491e-02
4.799999999999999822e-01 -5.462642948829191103e-02
4.899999999999999911e-01 -5.963587353945778297e-03
5.000000000000000000e-01 4.762071382923024204e-02
5.100000000000000089e-01 1.051940861766845758e-01
5.200000000000000178e-01 1.643433400549593748e-01
5.300000000000000266e-01 2.230590930676696337e-01
5.400000000000000355e-01 2.790001206967089864e-01
5.500000000000000444e-01 3.298998468860587785e-01
5.600000000000000533e-01 3.732623472138864029e-01
5.700000000000000622e-01 4.075277719873511284e-01
5.799999999999999600e-01 4.298501416583039858e-01
5.899999999999999689e-01 4.402380942867261115e-01
5.999999999999999778e-01 4.354535199274924273e-01
6.099999999999999867e-01 4.173508209976935501e-01
6.199999999999999956e-01 3.832372516972068488e-01
6.300000000000000044e-01 3.358736644589003784e-01
6.400000000000000133e-01 2.744730801305073631e-01
6.500000000000000222e-01 2.017425255104255688e-01
6.600000000000000311e-01 1.189644990114757245e-01
6.700000000000000400e-01 2.886181852342048840e-02
6.800000000000000488e-01 -6.588366209014240304e-02
6.900000000000000577e-01 -1.622550602022161670e-01
7.000000000000000666e-01 -2.572759350998008454e-01
7.099999999999999645e-01 -3.472575327968913661e-01
7.199999999999999734e-01 -4.302214721782097184e-01
7.299999999999999822e-01 -5.014835792566202377e-01
7.399999999999999911e-01 -5.607255558521145877e-01
7.500000000000000000e-01 -6.036967058099623751e-01
7.600000000000000089e-01 -6.307594500422860628e-01
7.700000000000000178e-01 -6.394333374782410484e-01
7.800000000000000266e-01 -6.303397618436942240e-01
7.900000000000000355e-01 -6.034016801598104385e-01
8.000000000000000444e-01 -5.593680158113196743e-01
8.100000000000000533e-01 -5.005111302565971032e-01
8.200000000000000622e-01 -4.278646987945447511e-01
8.300000000000000711e-01 -3.453249137906251320e-01
8.399999999999999689e-01 -2.546053209154168773e-01
8.499999999999999778e-01 -1.599680297968557596e-01
8.599999999999999867e-01 -6.435571914610270505e-02
8.699999999999999956e-01 2.881303453152185209e-02
8.800000000000000044e-01 1.158742352160966882e-01
8.900000000000000133e-01 1.942894788734162437e-01
9.000000000000000222e-01 2.609692503164123822e-01
9.100000000000000311e-01 3.138433884999440315e-01
9.200000000000000400e-01 3.515755469444824532e-01
9.300000000000000488e-01 3.722987103030152567e-01
9.400000000000000577e-01 3.770672453924001633e-01
9.500000000000000666e-01 3.642147137364499798e-01
9.599999999999999645e-01 3.371242348251222709e-01
9.699999999999999734e-01 2.946215811991175770e-01
9.799999999999999822e-01 2.413420633369301460e-01
9.899999999999999911e-01 1.780740885395800388e-01
1.000000000000000000e+00 1.088457456748241070e-01
1.010000000000000009e+00 3.617661250918424720e-02
1.020000000000000018e+00 -3.644692505625067580e-02
1.030000000000000027e+00 -1.060136999937835861e-01
1.040000000000000036e+00 -1.692925440826084371e-01
1.050000000000000044e+00 -2.241119543640402167e-01
1.060000000000000053e+00 -2.672314720196132809e-01
1.070000000000000062e+00 -2.983771070227336231e-01
1.080000000000000071e+00 -3.142139363468112734e-01
1.090000000000000080e+00 -3.166446931357403405e-01
1.100000000000000089e+00 -3.031233823953373707e-01
1.110000000000000098e+00 -2.766604532763946023e-01
1.120000000000000107e+00 -2.367874840702789974e-01
1.130000000000000115e+00 -1.864818162155059966e-01
1.140000000000000124e+00 -1.273223581807554350e-01
1.150000000000000133e+00 -6.222772467327181145e-02
1.159999999999999920e+00 6.064058710277903108e-03
1.169999999999999929e+00 7.450775321404183582e-02
1.179999999999999938e+00 1.404255013935873375e-01
1.189999999999999947e+00 2.003912165679749002e-01
1.199999999999999956e+00 2.530119897981603083e-01
1.209999999999999964e+00 2.943216290306729377e-01
1.219999999999999973e+00 3.246833322541360367e-01
1.229999999999999982e+00 3.409660218104271778e-01
1.239999999999999991e+00 3.442469390769861137e-01
1.250000000000000000e+00 3.332681715716587778e-01
1.260000000000000009e+00 3.094209572699797572e-01
1.270000000000000018e+00 2.735198234851842769e-01
1.280000000000000027e+00 2.271827661838802526e-01
1.290000000000000036e+00 1.728327553365962832e-01
1.300000000000000044e+00 1.124586094737920899e-01
1.310000000000000053e+00 4.912370946267086147e-02
1.320000000000000062e+00 -1.453347501730891528e-02
1.330000000000000071e+00 -7.594676159808251559e-02
1.340000000000000080e+00 -1.317938455046846480e-01
1.350000000000000089e+00 -1.805955490846312128e-01
1.360000000000000098e+00 -2.192940776665037450e-01
1.370000000000000107e+00 -2.471240589469849702e-01
1.380000000000000115e+00 -2.623299309168297677e-01
1.390000000000000124e+00 -2.645518665011452608e-01
1.400000000000000133e+00 -2.539105658616910288e-01
1.409999999999999920e+00 -2.303339707366932054e-01
1.419999999999999929e+00 -1.957943486262864186e-01
1.429999999999999938e+00 -1.506174639150025529e-01
1.439999999999999947e+00 -9.802011404778888937e-02
1.449999999999999956e+00 -3.901923227240884640e-02
1.459999999999999964e+00 2.298548055720267547e-02
1.469999999999999973e+00 8.583519008469119027e-02
1.479999999999999982e+00 1.469000801843571014e-01
1.489999999999999991e+00 2.035634841003083340e-01
1.500000000000000000e+00 2.537602905431550759e-01
1.510000000000000009e+00 2.954942255304203180e-01
1.520000000000000018e+00 3.270054923321236706e-01
1.530000000000000027e+00 3.477505795625961960e-01
1.540000000000000036e+00 3.561342438131575583e-01
1.550000000000000044e+00 3.534297380305596037e-01
1.560000000000000053e+00 3.382613843386383934e-01
1.570000000000000062e+00 3.133867822366269706e-01
1.580000000000000071e+00 2.783234369301164080e-01
1.590000000000000080e+00 2.361769374211251660e-01
1.600000000000000089e+00 1.879348562539203960e-01
1.610000000000000098e+00 1.362709452369302299e-01
1.620000000000000107e+00 8.313223044107556636e-02
1.630000000000000115e+00 3.086635556631180805e-02
1.640000000000000124e+00 -1.856868437345044962e-02
1.650000000000000133e+00 -6.297392605418390688e-02
1.660000000000000142e+00 -1.012692346900075369e-01
1.669999999999999929e+00 -1.312788721608775522e-01
1.679999999999999938e+00 -1.533909158929238903e-01
1.689999999999999947e+00 -1.654755506704847501e-01
1.699999999999999956e+00 -1.692407224332851123e-01
1.709999999999999964e+00 -1.636595982352575529e-01
1.719999999999999973e+00 -1.506498399906732455e-01
1.729999999999999982e+00 -1.306389917078978335e-01
1.739999999999999991e+00 -1.055232594421033621e-01
1.750000000000000000e+00 -7.678285125855230375e-02
1.760000000000000009e+00 -4.631481710625393738e-02
1.770000000000000018e+00 -1.591841023387926060e-02
1.780000000000000027e+00 1.239183988495594357e-02
1.790000000000000036e+00 3.731799406970975203e-02
1.800000000000000044e+00 5.662292092756997242e-02
1.810000000000000053e+00 7.007827601150513896e-02
1.820000000000000062e+00 7.554706015454763779e-02
1.830000000000000071e+00 7.370053578823490548e-02
1.840000000000000080e+00 6.335165749357916931e-02
1.850000000000000089e+00 4.546688457580621429e-02
1.860000000000000098e+00 2.014525816319755191e-02
1.870000000000000107e+00 -1.148814454594580640e-02
1.880000000000000115e+00 -4.824639950594297733e-02
1.890000000000000124e+00 -8.883273935986994718e-02
1.900000000000000133e+00 -1.315184036752631291e-01
1.910000000000000142e+00 -1.747210326318401619e-01
1.919999999999999929e+00 -2.169000783237404750e-01
1.929999999999999938e+00 -2.560583651694572915e-01
1.939999999999999947e+00 -2.913799809205904756e-01
1.949999999999999956e+00 -3.209137439040874451e-01
1.959999999999999964e+00 -3.444147028166901769e-01
1.969999999999999973e+00 -3.606295759598834305e-01
1.979999999999999982e+00 -3.696330973019670840e-01
1.989999999999999991e+00 -3.712466861207461277e-01
2.000000000000000000e+00 -3.657373847392053068e-01
2.010000000000000231e+00 -3.539994177752135984e-01
2.020000000000000018e+00 -3.364862601626014693e-01
2.030000000000000249e+00 -3.148148038075436195e-01
2.040000000000000036e+00 -2.897139173017304614e-01
2.049999999999999822e+00 -2.629304154832379226e-01
2.060000000000000053e+00 -2.356062467572604124e-01
2.069999999999999840e+00 -2.090581322039914980e-01
2.080000000000000071e+00 -1.845814037318873058e-01
2.089999999999999858e+00 -1.629856511338925451e-01
2.100000000000000089e+00 -1.451898623420967982e-01
2.109999999999999876e+00 -1.316228225447849121e-01
2.120000000000000107e+00 -1.224382119238409117e-01
2.129999999999999893e+00 -1.177441660319409888e-01
2.140000000000000124e+00 -1.168544387480447005e-01
2.149999999999999911e+00 -1.195181389332882621e-01
2.160000000000000142e+00 -1.244673346671556491e-01
2.169999999999999929e+00 -1.309711465152702814e-01
2.180000000000000160e+00 -1.376668595718884280e-01
2.189999999999999947e+00 -1.432891444839700656e-01
2.200000000000000178e+00 -1.467571758447215324e-01
2.209999999999999964e+00 -1.467005573670320251e-01
2.220000000000000195e+00 -1.422734806241539862e-01
2.229999999999999982e+00 -1.325744652218546482e-01
2.240000000000000213e+00 -1.169312556442561879e-01
2.250000000000000000e+00 -9.532764863268083921e-02
2.260000000000000231e+00 -6.727804715052725093e-02
2.270000000000000018e+00 -3.377017479175202508e-02
2.280000000000000249e+00 5.366298110101886190e-03
2.290000000000000036e+00 4.841821008906588286e-02
2.300000000000000266e+00 9.487417206193582420e-02
2.310000000000000053e+00 1.429079194911453965e-01
2.319999999999999840e+00 1.911978805406263082e-01
2.330000000000000071e+00 2.381195054542517842e-01
2.339999999999999858e+00 2.820259997332076329e-01
2.350000000000000089e+00 3.213813953560485936e-01
2.359999999999999876e+00 3.549098515504843232e-01
2.370000000000000107e+00 3.810403848296886054e-01
2.379999999999999893e+00 3.994726464536289545e-01
2.390000000000000124e+00 4.085521625617570263e-01
2.399999999999999911e+00 4.092963906364117666e-01
2.410000000000000142e+00 4.000562934846462193e-01
2.419999999999999929e+00 3.828901862804668932e-01
2.430000000000000160e+00 3.571446979068663152e-01
2.439999999999999947e+00 3.248681893534311471e-01
2.450000000000000178e+00 2.866787140794344602e-01
2.459999999999999964e+00 2.444616503495457005e-01
2.470000000000000195e+00 1.996821427168982144e-01
2.479999999999999982e+00 1.541542335656587159e-01
2.490000000000000213e+00 1.095046984553602470e-01
2.500000000000000000e+00 6.762605209119204597e-02
2.510000000000000231e+00 2.958163089968380774e-02
2.520000000000000018e+00 -2.540726705521361047e-03
2.530000000000000249e+00 -2.871691000277841466e-02
2.540000000000000036e+00 -4.695001199457144586e-02
2.550000000000000266e+00 -5.804350567192855664e-02
2.560000000000000053e+00 -6.090601414824344667e-02
2.569999999999999840e+00 -5.655094376848728011e-02
2.580000000000000071e+00 -4.509105908752154834e-02
2.589999999999999858e+00 -2.763426824153441749e-02
2.600000000000000089e+00 -5.296133051922117391e-03
2.609999999999999876e+00 2.069751196505644972e-02
2.620000000000000107e+00 4.873635830082007070e-02
2.629999999999999893e+00 7.736273124117631905e-02
2.640000000000000124e+00 1.051400602494135111e-01
2.649999999999999911e+00 1.302545263979769385e-01
2.660000000000000142e+00 1.519404240172670395e-01
2.669999999999999929e+00 1.684218544779177984e-01
2.680000000000000160e+00 1.794851037282961803e-01
2.689999999999999947e+00 1.839929599437800933e-01
2.700000000000000178e+00 1.820470057224454208e-01
2.709999999999999964e+00 1.735023887312388269e-01
2.720000000000000195e+00 1.586692331001139655e-01
2.729999999999999982e+00 1.383952974923097212e-01
2.740000000000000213e+00 1.132135114287098759e-01
2.750000000000000000e+00 8.463476842367032016e-02
2.760000000000000231e+00 5.352699244516489346e-02
2.770000000000000018e+00 2.150578431458211384e-02
2.780000000000000249e+00 -1.009220736359682687e-02
2.790000000000000036e+00 -4.004338396832326369e-02
2.800000000000000266e+00 -6.683761527289701354e-02
2.810000000000000053e+00 -8.966119908255848481e-02
2.819999999999999840e+00 -1.073832595857754785e-01
2.830000000000000071e+00 -1.194540755125473169e-01
2.839999999999999858e+00 -1.255550005707385675e-01
2.850000000000000089e+00 -1.253176573030282404e-01
2.859999999999999876e+00 -1.193849879363962502e-01
2.870000000000000107e+00 -1.075903666399880970e-01
2.879999999999999893e+00 -9.136795540913947300e-02
2.890000000000000124e+00 -7.087275784605263917e-02
2.899999999999999911e+00 -4.783735178283063383e-02
2.910000000000000142e+00 -2.306260556720094584e-02
2.919999999999999929e+00 2.016951236196918261e-03
2.930000000000000160e+00 2.620110363130613920e-02
2.939999999999999947e+00 4.834389621423229588e-02
2.950000000000000178e+00 6.738653941688534099e-02
2.959999999999999964e+00 8.237397260001246002e-02
2.970000000000000195e+00 9.286193950509041839e-02
2.979999999999999982e+00 9.802990206533060413e-02
2.990000000000000213e+00 9.830088480695901854e-02
3.000000000000000000e+00 9.302257060917999698e-02
3.010000000000000231e+00 8.339279663380684549e-02
3.020000000000000018e+00 6.921731773794358167e-02
3.030000000000000249e+00 5.197094369800450697e-02
3.040000000000000036e+00 3.221319322820715564e-02
3.050000000000000266e+00 1.127875063732969654e-02
3.060000000000000053e+00 -9.775502025117049215e-03
3.070000000000000284e+00 -2.972259976650380719e-02
3.080000000000000071e+00 -4.751781437481414350e-02
3.089999999999999858e+00 -6.196985936438426795e-02
3.100000000000000089e+00 -7.254088784759389619e-02
3.109999999999999876e+00 -7.803203078700052253e-02
3.120000000000000107e+00 -7.874774322882181765e-02
3.129999999999999893e+00 -7.352292383336263282e-02
3.140000000000000124e+00 -6.342791440585912599e-02
3.149999999999999911e+00 -4.793209529731048968e-02
3.160000000000000142e+00 -2.825312539652136135e-02
3.169999999999999929e+00 -4.725204687208111806e-03
3.180000000000000160e+00 2.144417798672462044e-02
3.189999999999999947e+00 4.929801056002777043e-02
3.200000000000000178e+00 7.760984439354573494e-02
3.209999999999999964e+00 1.052621126206828434e-01
3.220000000000000195e+00 1.309289634474036790e-01
3.229999999999999982e+00 1.538516516904131770e-01
3.240000000000000213e+00 1.725382065918873720e-01
3.250000000000000000e+00 1.869549996048638640e-01
3.260000000000000231e+00 1.956407378924287510e-01
3.270000000000000018e+00 1.991709935213286931e-01
3.280000000000000249e+00 1.967257402293824398e-01
3.290000000000000036e+00 1.890395320246068267e-01
3.300000000000000266e+00 1.761709487462804202e-01
3.310000000000000053e+00 1.589317060732849951e-01
3.320000000000000284e+00 1.381231200892259203e-01
3.330000000000000071e+00 1.146495690679425333e-01
3.339999999999999858e+00 8.968613577949342830e-02
3.350000000000000089e+00 6.430957623677871493e-02
3.359999999999999876e+00 3.957434469563507473e-02
3.370000000000000107e+00 1.681526425986661077e-02
3.379999999999999893e+00 -3.409753629545876109e-03
3.390000000000000124e+00 -1.979317844623078998e-02
3.399999999999999911e+00 -3.220103800952280049e-02
3.410000000000000142e+00 -3.980516486548592303e-02
3.419999999999999929e+00 -4.271733429950768518e-02
3.430000000000000160e+00 -4.085195409416137596e-02
3.439999999999999947e+00 -3.449086342791417292e-02
3.450000000000000178e+00 -2.428209538514852078e-02
3.459999999999999964e+00 -1.069045153871134302e-02
3.470000000000000195e+00 5.162683068845352538e-03
3.479999999999999982e+00 2.254701707733289956e-02
3.490000000000000213e+00 4.029603455634991893e-02
3.500000000000000000e+00 5.733298222361747631e-02
3.510000000000000231e+00 7.280889842841066495e-02
3.520000000000000018e+00 8.555872269505727934e-02
3.530000000000000249e+00 9.504833369121809539e-02
3.540000000000000036e+00 1.004530540463611232e-01
3.550000000000000266e+00 1.014511253882608016e-01
3.560000000000000053e+00 9.787511648833090161e-02
3.570000000000000284e+00 8.956732190512055325e-02
3.580000000000000071e+00 7.710301065234066720e-02
3.589999999999999858e+00 6.052311310780814080e-02
3.600000000000000089e+00 4.097479598961345504e-02
3.609999999999999876e+00 1.880882924262237965e-02
3.620000000000000107e+00 -4.653195065542009914e-03
3.629999999999999893e+00 -2.856321383909322248e-02
3.640000000000000124e+00 -5.183453858602846132e-02
3.649999999999999911e+00 -7.336961988726135864e-02
3.660000000000000142e+00 -9.229149666319499956e-02
3.669999999999999929e+00 -1.077084228344899614e-01
3.680000000000000160e+00 -1.188669993816583031e-01
3.689999999999999947e+00 -1.254668362516145608e-01
3.700000000000000178e+00 -1.268339905728994854e-01
3.709999999999999964e+00 -1.234520240119760387e-01
3.720000000000000195e+00 -1.147632255761298764e-01
3.729999999999999982e+00 -1.019331183452118483e-01
3.740000000000000213e+00 -8.477708964817726178e-02
3.750000000000000000e+00 -6.468755839477344227e-02
3.760000000000000231e+00 -4.214689781843079797e-02
3.770000000000000018e+00 -1.837831448366451098e-02
3.780000000000000249e+00 5.687028496574173496e-03
3.790000000000000036e+00 2.895282401340837364e-02
3.800000000000000266e+00 5.048708373051085524e-02
3.810000000000000053e+00 6.924508149165284343e-02
3.820000000000000284e+00 8.472552192585063036e-02
3.830000000000000071e+00 9.588548981522293513e-02
3.839999999999999858e+00 1.029476714853035796e-01
3.850000000000000089e+00 1.048940916849795957e-01
3.859999999999999876e+00 1.026153279457933665e-01
