# [DEFAULT]
# # input and output specifications
# dataformat = QA
# outputtype = gr
# 
# # PDF calculation setup
# mode = xray
# wavelength = 
# composition = Cl4.0Cr1.0Na1.0
# bgscale = 1.0
# rpoly = 0.9
# qmaxinst = 28
# qmin = 0.0
# qmax = 22
# rmin = 0.0
# rmax = 30.0
# rstep = 0.01
# 
# # End of config --------------------------------------------------------------
# 
# #### start data
# #S 1
# #L r(Å)  G(Å$^$)
# 
0.000000000000000000e+00 0.000000000000000000e+00
1.000000000000000021e-02 -3.374393035948269372e-03
2.000000000000000042e-02 -6.843984306619317615e-03
2.999999999999999889e-02 -1.051236744686111918e-02
4.000000000000000083e-02 -1.440779121943613385e-02
5.000000000000000278e-02 -1.855639380713731273e-02
5.999999999999999778e-02 -2.289410518412393972e-02
7.000000000000000666e-02 -2.731977967186218284e-02
8.000000000000000167e-02 -3.165313514590493288e-02
8.999999999999999667e-02 -3.569304366175958532e-02
1.000000000000000056e-01 -3.911752735788435326e-02
1.100000000000000006e-01 -4.173339406628988335e-02
1.199999999999999956e-01 -4.306016491943463059e-02
1.300000000000000044e-01 -4.303966701547658202e-02
1.400000000000000133e-01 -4.113657294326251296e-02
1.499999999999999944e-01 -3.743789784040671420e-02
1.600000000000000033e-01 -3.159441062152200386e-02
1.700000000000000122e-01 -2.377592326694042552e-02
1.799999999999999933e-01 -1.397716395390918506e-02
1.900000000000000022e-01 -2.475485192548927248e-03
2.000000000000000111e-01 1.036832867414465460e-02
2.099999999999999922e-01 2.410854341616152502e-02
2.200000000000000011e-01 3.814428902901347701e-02
2.300000000000000100e-01 5.177110019232142313e-02
2.399999999999999911e-01 6.441066291153617340e-02
2.500000000000000000e-01 7.500916217683152587e-02
2.600000000000000089e-01 8.323838969039901170e-02
2.700000000000000178e-01 8.798789865451651926e-02
2.800000000000000266e-01 8.908909746821289111e-02
2.899999999999999800e-01 8.576410272064866058e-02
2.999999999999999889e-01 7.796260781843109000e-02
3.099999999999999978e-01 6.553347574379619900e-02
3.200000000000000067e-01 4.856311799868716361e-02
3.300000000000000155e-01 2.763441514125612730e-02
3.400000000000000244e-01 3.076393357332261186e-03
3.500000000000000333e-01 -2.393951623063701045e-02
3.599999999999999867e-01 -5.264860486661211703e-02
3.699999999999999956e-01 -8.167691059253601171e-02
3.800000000000000044e-01 -1.096305263216484777e-01
3.900000000000000133e-01 -1.353133113668728293e-01
4.000000000000000222e-01 -1.569851999222689198e-01
4.100000000000000311e-01 -1.736096101889976207e-01
4.199999999999999845e-01 -1.836994333188180228e-01
4.299999999999999933e-01 -1.862659702771350123e-01
4.400000000000000022e-01 -1.806713448737591043e-01
4.500000000000000111e-01 -1.659353620703526988e-01
4.600000000000000200e-01 -1.426595796534083638e-01
4.700000000000000289e-01 -1.099755296211529232e-01
4.799999999999999822e-01 -6.976578756584177199e-02
4.899999999999999911e-01 -2.155431205000583536e-02
5.000000000000000000e-01 3.202243790968224701e-02
5.100000000000000089e-01 9.016079864300266533e-02
5.200000000000000178e-01 1.504168185062578211e-01
5.300000000000000266e-01 2.108529186229725905e-01
5.400000000000000355e-01 2.691001175446072757e-01
5.500000000000000444e-01 3.228909450777635026e-01
5.600000000000000533e-01 3.697057941874320464e-01
5.700000000000000622e-01 4.079128511195935780e-01
5.799999999999999600e-01 4.346388043863508854e-01
5.899999999999999689e-01 4.497687577804384551e-01
5.999999999999999778e-01 4.500179510878681288e-01
6.099999999999999867e-01 4.371014098944408510e-01
6.199999999999999956e-01 4.082367487616782031e-01
6.300000000000000044e-01 3.660664071943970366e-01
6.400000000000000133e-01 3.096797599443372184e-01
6.500000000000000222e-01 2.416860428866219046e-01
6.600000000000000311e-01 1.632488725941384222e-01
6.700000000000000400e-01 7.699651841538522612e-02
6.800000000000000488e-01 -1.446160607964496608e-02
6.900000000000000577e-01 -1.082145232569137194e-01
7.000000000000000666e-01 -2.012802656964287062e-01
7.099999999999999645e-01 -2.900949180854283105e-01
7.199999999999999734e-01 -3.725814775964209069e-01
7.299999999999999822e-01 -4.441974417644785067e-01
7.399999999999999911e-01 -5.044608730743939118e-01
7.500000000000000000e-01 -5.491966325481530964e-01
7.600000000000000089e-01 -5.786255041577705871e-01
7.700000000000000178e-01 -5.902546979080416367e-01
7.800000000000000266e-01 -5.845893254148775142e-01
7.900000000000000355e-01 -5.614747144494304232e-01
8.000000000000000444e-01 -5.215608219934222411e-01
8.100000000000000533e-01 -4.670124223369083727e-01
8.200000000000000622e-01 -3.987686974727275291e-01
8.300000000000000711e-01 -3.206277159850327019e-01
8.399999999999999689e-01 -2.341999679271932200e-01
8.499999999999999778e-01 -1.436901838755429983e-01
8.599999999999999867e-01 -5.193271848106152666e-02
8.699999999999999956e-01 3.766835821740346923e-02
8.800000000000000044e-01 1.215304192976823655e-01
8.900000000000000133e-01 1.971101122087176027e-01
9.000000000000000222e-01 2.613491178454486752e-01
9.100000000000000311e-01 3.121640584338163382e-01
9.200000000000000400e-01 3.481946494866203223e-01
9.300000000000000488e-01 3.675558774829590369e-01
9.400000000000000577e-01 3.712338894867016625e-01
9.500000000000000666e-01 3.575360990168824360e-01
9.599999999999999645e-01 3.297561475575927492e-01
9.699999999999999734e-01 2.866778786627098841e-01
9.799999999999999822e-01 2.328542073271150092e-01
9.899999999999999911e-01 1.690103355113288797e-01
1.000000000000000000e+00 9.911669851852582258e-02
1.010000000000000009e+00 2.562851933285702904e-02
1.020000000000000018e+00 -4.800909197952497875e-02
1.030000000000000027e+00 -1.188256222962825598e-01
1.040000000000000036e+00 -1.836222298860859248e-01
1.050000000000000044e+00 -2.402285566557345597e-01
1.060000000000000053e+00 -2.854306945332035217e-01
1.070000000000000062e+00 -3.189129779195801762e-01
1.080000000000000071e+00 -3.373589076110626306e-01
1.090000000000000080e+00 -3.425991931375919619e-01
1.100000000000000089e+00 -3.320822498131268952e-01
1.110000000000000098e+00 -3.087433770689609891e-01
1.120000000000000107e+00 -2.720758490527216411e-01
1.130000000000000115e+00 -2.249923931924718012e-01
1.140000000000000124e+00 -1.690162571765765065e-01
1.150000000000000133e+00 -1.070067309230303687e-01
1.159999999999999920e+00 -4.165244545415761751e-02
1.169999999999999929e+00 2.406200033372029104e-02
1.179999999999999938e+00 8.748049504759568273e-02
1.189999999999999947e+00 1.452439354230398161e-01
1.199999999999999956e+00 1.959391952796671887e-01
1.209999999999999964e+00 2.356746161024975972e-01
1.219999999999999973e+00 2.647576358279821740e-01
1.229999999999999982e+00 2.801038953003014975e-01
1.239999999999999991e+00 2.827361849174322428e-01
1.250000000000000000e+00 2.714018384621163515e-01
1.260000000000000009e+00 2.474447720709250509e-01
1.270000000000000018e+00 2.116501772288383043e-01
1.280000000000000027e+00 1.655949498103219952e-01
1.290000000000000036e+00 1.116531500057333648e-01
1.300000000000000044e+00 5.177462729201486036e-02
1.310000000000000053e+00 -1.102727593281029733e-02
1.320000000000000062e+00 -7.415601344089281510e-02
1.330000000000000071e+00 -1.350803041714615793e-01
1.340000000000000080e+00 -1.905230157852532136e-01
1.350000000000000089e+00 -2.390198175586329410e-01
1.360000000000000098e+00 -2.775488237622066312e-01
1.370000000000000107e+00 -3.053479498342610010e-01
1.380000000000000115e+00 -3.206774611989787194e-01
1.390000000000000124e+00 -3.231750051462037865e-01
1.400000000000000133e+00 -3.129538938693577355e-01
1.409999999999999920e+00 -2.899362658814436666e-01
1.419999999999999929e+00 -2.560679237867589109e-01
1.429999999999999938e+00 -2.116651099529550106e-01
1.439999999999999947e+00 -1.599086363549983847e-01
1.449999999999999956e+00 -1.017998224588453904e-01
1.459999999999999964e+00 -4.070479997657512616e-02
1.469999999999999973e+00 2.124162629400761296e-02
1.479999999999999982e+00 8.143293995964449861e-02
1.489999999999999991e+00 1.372772057911887389e-01
1.500000000000000000e+00 1.867256420572136755e-01
1.510000000000000009e+00 2.277979791275119292e-01
1.520000000000000018e+00 2.587472386874085650e-01
1.530000000000000027e+00 2.790315585263360432e-01
1.540000000000000036e+00 2.870672729721246985e-01
1.550000000000000044e+00 2.841140395038556088e-01
1.560000000000000053e+00 2.688072830487190923e-01
1.570000000000000062e+00 2.438804091931345286e-01
1.580000000000000071e+00 2.088573722120600773e-01
1.590000000000000080e+00 1.668195271274914571e-01
1.600000000000000089e+00 1.187523325139409058e-01
1.610000000000000098e+00 6.731244945893555265e-02
1.620000000000000107e+00 1.443994150669535362e-02
1.630000000000000115e+00 -3.752757028151773588e-02
1.640000000000000124e+00 -8.663860448725224650e-02
1.650000000000000133e+00 -1.306973544882287508e-01
1.660000000000000142e+00 -1.686266910472289104e-01
1.669999999999999929e+00 -1.982467844036554239e-01
1.679999999999999938e+00 -2.199453656871753759e-01
1.689999999999999947e+00 -2.315800436406090512e-01
1.699999999999999956e+00 -2.348567628533305973e-01
1.709999999999999964e+00 -2.287307857293823798e-01
1.719999999999999973e+00 -2.151150231614197550e-01
1.729999999999999982e+00 -1.944187910483012871e-01
1.739999999999999991e+00 -1.685303223678708273e-01
1.750000000000000000e+00 -1.389168727451431384e-01
1.760000000000000009e+00 -1.074636097149468672e-01
1.770000000000000018e+00 -7.596732559011068475e-02
1.780000000000000027e+00 -4.642629040303700161e-02
1.790000000000000036e+00 -2.014982874618171521e-02
1.800000000000000044e+00 6.452327149308696372e-04
1.810000000000000053e+00 1.570662197245043315e-02
1.820000000000000062e+00 2.291501697059458720e-02
1.830000000000000071e+00 2.291494865406715903e-02
1.840000000000000080e+00 1.452511149494154982e-02
1.850000000000000089e+00 -1.308676081617150258e-03
1.860000000000000098e+00 -2.449304391580223519e-02
1.870000000000000107e+00 -5.391766601908372369e-02
1.880000000000000115e+00 -8.840773919169225836e-02
1.890000000000000124e+00 -1.266761596495364628e-01
1.900000000000000133e+00 -1.670075119394555663e-01
1.910000000000000142e+00 -2.078247898119788828e-01
1.919999999999999929e+00 -2.475980314889899281e-01
1.929999999999999938e+00 -2.843313372467888844e-01
1.939999999999999947e+00 -3.172145410141700705e-01
1.949999999999999956e+00 -3.442944839560875825e-01
1.959999999999999964e+00 -3.653265440020508348e-01
1.969999999999999973e+00 -3.790526547936623469e-01
1.979999999999999982e+00 -3.855440097887115058e-01
1.989999999999999991e+00 -3.846163452239290126e-01
2.000000000000000000e+00 -3.765304893437035894e-01
2.010000000000000231e+00 -3.621775282051886702e-01
2.020000000000000018e+00 -3.420032750726806903e-01
2.030000000000000249e+00 -3.176275361155388999e-01
2.040000000000000036e+00 -2.897720683117298579e-01
2.049999999999999822e+00 -2.601939808674135768e-01
2.060000000000000053e+00 -2.300337286031028938e-01
2.069999999999999840e+00 -2.006230716776303546e-01
2.080000000000000071e+00 -1.732666366557140125e-01
2.089999999999999858e+00 -1.487918668045771220e-01
2.100000000000000089e+00 -1.281368592903401049e-01
2.109999999999999876e+00 -1.117535571751366863e-01
2.120000000000000107e+00 -9.981870211321336450e-02
2.129999999999999893e+00 -9.247271274916124550e-02
2.140000000000000124e+00 -8.904728337595356480e-02
2.149999999999999911e+00 -8.933741582442331075e-02
2.160000000000000142e+00 -9.207724835381717043e-02
2.169999999999999929e+00 -9.659948400196462226e-02
2.180000000000000160e+00 -1.015251737556446127e-01
2.189999999999999947e+00 -1.056489833581522597e-01
2.200000000000000178e+00 -1.078745865721290331e-01
2.209999999999999964e+00 -1.068706710468273896e-01
2.220000000000000195e+00 -1.017829285705501435e-01
2.229999999999999982e+00 -9.172016679806767325e-02
2.240000000000000213e+00 -7.601034266796635741e-02
2.250000000000000000e+00 -5.461661717451521403e-02
2.260000000000000231e+00 -2.706114425991035244e-02
2.270000000000000018e+00 5.716436845197760824e-03
2.280000000000000249e+00 4.387530616722859489e-02
2.290000000000000036e+00 8.576681381924082526e-02
2.300000000000000266e+00 1.308784931911025906e-01
2.310000000000000053e+00 1.774451576855579360e-01
2.319999999999999840e+00 2.241652743517144608e-01
2.330000000000000071e+00 2.694616604838812601e-01
2.339999999999999858e+00 3.117211553280863079e-01
2.350000000000000089e+00 3.494476407355829317e-01
2.359999999999999876e+00 3.813989149981041327e-01
2.370000000000000107e+00 4.060429332266219937e-01
2.379999999999999893e+00 4.231003907624774629e-01
2.390000000000000124e+00 4.309604917166515170e-01
2.399999999999999911e+00 4.306394140082105415e-01
2.410000000000000142e+00 4.205400770837712798e-01
2.419999999999999929e+00 4.026981692091737841e-01
2.430000000000000160e+00 3.765017759206076842e-01
2.439999999999999947e+00 3.439751856615095305e-01
2.450000000000000178e+00 3.057552112125277999e-01
2.459999999999999964e+00 2.637075323726080778e-01
2.470000000000000195e+00 2.192917611935764066e-01
2.479999999999999982e+00 1.743068437216140631e-01
2.490000000000000213e+00 1.303534784346514208e-01
2.500000000000000000e+00 8.931088710044622625e-02
2.510000000000000231e+00 5.220336103962041480e-02
2.520000000000000018e+00 2.110202696128482547e-02
2.530000000000000249e+00 -4.010478608138557353e-03
2.540000000000000036e+00 -2.116469493165969856e-02
2.550000000000000266e+00 -3.119841754831459771e-02
2.560000000000000053e+00 -3.305725577279312183e-02
2.569999999999999840e+00 -2.778281625429063206e-02
2.580000000000000071e+00 -1.552447132534690195e-02
2.589999999999999858e+00 2.581319844859235844e-03
2.600000000000000089e+00 2.539417105675136413e-02
2.609999999999999876e+00 5.165372445187255135e-02
2.620000000000000107e+00 7.974637831431652391e-02
2.629999999999999893e+00 1.081703719311709055e-01
2.640000000000000124e+00 1.355140316476517448e-01
2.649999999999999911e+00 1.599093425205821428e-01
2.660000000000000142e+00 1.806381289904112064e-01
2.669999999999999929e+00 1.958868960206698873e-01
2.680000000000000160e+00 2.054859816990398658e-01
2.689999999999999947e+00 2.082907851077551442e-01
2.700000000000000178e+00 2.044400131666569975e-01
2.709999999999999964e+00 1.938099653590505955e-01
2.720000000000000195e+00 1.767446098341267369e-01
2.729999999999999982e+00 1.541327722069993911e-01
2.740000000000000213e+00 1.265445659847922732e-01
2.750000000000000000e+00 9.553827322055871707e-02
2.760000000000000231e+00 6.203076679943574090e-02
2.770000000000000018e+00 2.767604295084626770e-02
2.780000000000000249e+00 -6.124572518388445019e-03
2.790000000000000036e+00 -3.812426191808368503e-02
2.800000000000000266e+00 -6.674777818424028342e-02
2.810000000000000053e+00 -9.116340936942057827e-02
2.819999999999999840e+00 -1.101931749051946463e-01
2.830000000000000071e+00 -1.232677718617077173e-01
2.839999999999999858e+00 -1.300536198376067154e-01
2.850000000000000089e+00 -1.301576227092651472e-01
2.859999999999999876e+00 -1.242474860141371124e-01
2.870000000000000107e+00 -1.121276933009765220e-01
2.879999999999999893e+00 -9.529573056695123112e-02
2.890000000000000124e+00 -7.387949286141598515e-02
2.899999999999999911e+00 -4.969672504000732099e-02
2.910000000000000142e+00 -2.355214962665541645e-02
2.919999999999999929e+00 3.044828463325295088e-03
2.930000000000000160e+00 2.885608218404907971e-02
2.939999999999999947e+00 5.267075908923959937e-02
2.950000000000000178e+00 7.337538465699632029e-02
2.959999999999999964e+00 8.995260816021015404e-02
2.970000000000000195e+00 1.019090782811721968e-01
2.979999999999999982e+00 1.083568644974652884e-01
2.990000000000000213e+00 1.096969725332749002e-01
3.000000000000000000e+00 1.051992251251168686e-01
3.010000000000000231e+00 9.607856028402633752e-02
3.020000000000000018e+00 8.206352257867707833e-02
3.030000000000000249e+00 6.467214214503211323e-02
3.040000000000000036e+00 4.442018443457201871e-02
3.050000000000000266e+00 2.268586821620819163e-02
3.060000000000000053e+00 5.273194254976527884e-04
3.070000000000000284e+00 -2.078680584921839547e-02
3.080000000000000071e+00 -4.017163269681345295e-02
3.089999999999999858e+00 -5.639292959817099327e-02
3.100000000000000089e+00 -6.885004204555829344e-02
3.109999999999999876e+00 -7.629300534904762121e-02
3.120000000000000107e+00 -7.896370974335124859e-02
3.129999999999999893e+00 -7.562963786256388099e-02
3.140000000000000124e+00 -6.731842213606888115e-02
3.149999999999999911e+00 -5.342425991605368601e-02
3.160000000000000142e+00 -3.514132525971593035e-02
3.169999999999999929e+00 -1.274346800223697708e-02
3.180000000000000160e+00 1.257600300685217040e-02
3.189999999999999947e+00 3.988664022661575492e-02
3.200000000000000178e+00 6.797267698532899471e-02
3.209999999999999964e+00 9.570070135786518106e-02
3.220000000000000195e+00 1.217530239224934585e-01
3.229999999999999982e+00 1.453158577663981876e-01
3.240000000000000213e+00 1.648987900619467706e-01
3.250000000000000000e+00 1.803900411198764431e-01
3.260000000000000231e+00 1.903101437646794736e-01
3.270000000000000018e+00 1.951594093762126503e-01
3.280000000000000249e+00 1.940736978757731657e-01
3.290000000000000036e+00 1.877282766417010806e-01
3.300000000000000266e+00 1.761285574381010188e-01
3.310000000000000053e+00 1.600370385463053824e-01
3.320000000000000284e+00 1.402154767355406895e-01
3.330000000000000071e+00 1.175236226210256002e-01
3.339999999999999858e+00 9.312804708513594543e-02
3.350000000000000089e+00 6.806304318537292897e-02
3.359999999999999876e+00 4.341352119583793967e-02
3.370000000000000107e+00 2.047623246628444901e-02
3.379999999999999893e+00 -1.310703088206356800e-04
3.390000000000000124e+00 -1.711000415157102467e-02
3.399999999999999911e+00 -3.026624699824608314e-02
3.410000000000000142e+00 -3.874632866965646572e-02
3.419999999999999929e+00 -4.260629152052174823e-02
3.430000000000000160e+00 -4.171496101798991690e-02
3.439999999999999947e+00 -3.630013863517533856e-02
3.450000000000000178e+00 -2.696498688753385872e-02
3.459999999999999964e+00 -1.411772437299815310e-02
3.470000000000000195e+00 1.143582198025449095e-03
3.479999999999999982e+00 1.815045953288293643e-02
3.490000000000000213e+00 3.572576605732594862e-02
3.500000000000000000e+00 5.285023673248052251e-02
3.510000000000000231e+00 6.863912231523548735e-02
3.520000000000000018e+00 8.195413980107911500e-02
3.530000000000000249e+00 9.222091984045976965e-02
3.540000000000000036e+00 9.860321490341464323e-02
3.550000000000000266e+00 1.007364179186777953e-01
3.560000000000000053e+00 9.841188140830482711e-02
3.570000000000000284e+00 9.142386984475414646e-02
3.580000000000000071e+00 8.029476455856870976e-02
3.589999999999999858e+00 6.500699044595695253e-02
3.600000000000000089e+00 4.666587670131626397e-02
3.609999999999999876e+00 2.554791193589181844e-02
3.620000000000000107e+00 2.959043548320323784e-03
3.629999999999999893e+00 -2.032524279944209616e-02
3.640000000000000124e+00 -4.321718212209974680e-02
3.649999999999999911e+00 -6.466617863612583728e-02
3.660000000000000142e+00 -8.378735087627899036e-02
3.669999999999999929e+00 -9.969684511231924340e-02
3.680000000000000160e+00 -1.116297922744180493e-01
3.689999999999999947e+00 -1.192536694009933423e-01
3.700000000000000178e+00 -1.218779894524977953e-01
3.709999999999999964e+00 -1.199249504803370364e-01
3.720000000000000195e+00 -1.128094935435248886e-01
3.729999999999999982e+00 -1.016268758802649080e-01
3.740000000000000213e+00 -8.614558088932107449e-02
3.750000000000000000e+00 -6.769989676283555413e-02
3.760000000000000231e+00 -4.671161624458591843e-02
3.770000000000000018e+00 -2.436143027533608368e-02
3.780000000000000249e+00 -1.527119446794487218e-03
3.790000000000000036e+00 2.072882310131202166e-02
3.800000000000000266e+00 4.150043414008740272e-02
3.810000000000000053e+00 5.977296069340136409e-02
3.820000000000000284e+00 7.503231151425496237e-02
3.830000000000000071e+00 8.626246112189353554e-02
3.839999999999999858e+00 9.363444829479744547e-02
3.850000000000000089e+00 9.615008341535354053e-02
3.859999999999999876e+00 9.462563485011753206e-02
