# [DEFAULT]
# # input and output specifications
# dataformat = QA
# outputtype = gr
# 
# # PDF calculation setup
# mode = xray
# wavelength = 
# composition = Cl4.0Cr1.0Na1.0
# bgscale = 1.0
# rpoly = 0.9
# qmaxinst = 28
# qmin = 0.0
# qmax = 22
# rmin = 0.0
# rmax = 30.0
# rstep = 0.01
# 
# # End of config --------------------------------------------------------------
# 
# #### start data
# #S 1
# #L r(Å)  G(Å$^$)
# 
0.000000000000000000e+00 0.000000000000000000e+00
1.000000000000000021e-02 -4.225306989727913194e-03
2.000000000000000042e-02 -8.503573362842161212e-03
2.999999999999999889e-02 -1.288676909900623654e-02
4.000000000000000083e-02 -1.737610316478526221e-02
5.000000000000000278e-02 -2.195507211868098774e-02
5.999999999999999778e-02 -2.654345226133838706e-02
7.000000000000000666e-02 -3.102321235146991013e-02
8.000000000000000167e-02 -3.520616498223516633e-02
8.999999999999999667e-02 -3.890736581325988236e-02
1.000000000000000056e-01 -4.180594046154279680e-02
1.100000000000000006e-01 -4.375353539603898251e-02
1.199999999999999956e-01 -4.428411346772912621e-02
1.300000000000000044e-01 -4.339718467934630675e-02
1.400000000000000133e-01 -4.059330631717671112e-02
1.499999999999999944e-01 -3.601048730657797209e-02
1.600000000000000033e-01 -2.935007297981770055e-02
1.700000000000000122e-01 -2.082196439865341073e-02
1.799999999999999933e-01 -1.046596466517302204e-02
1.900000000000000022e-01 1.408179756126260633e-03
2.000000000000000111e-01 1.441988904050852012e-02
2.099999999999999922e-01 2.809728630783149203e-02
2.200000000000000011e-01 4.185626325811235560e-02
2.300000000000000100e-01 5.497500116813696519e-02
2.399999999999999911e-01 6.692735450148548648e-02
2.500000000000000000e-01 7.665818097756448013e-02
2.600000000000000089e-01 8.390988936535875853e-02
2.700000000000000178e-01 8.760522556458666399e-02
2.800000000000000266e-01 8.763985719299402510e-02
2.899999999999999800e-01 8.329396578076474211e-02
2.999999999999999889e-01 7.457734933034002034e-02
3.099999999999999978e-01 6.139657731740773283e-02
3.200000000000000067e-01 4.389816399358406618e-02
3.300000000000000155e-01 2.269609631210274536e-02
3.400000000000000244e-01 -1.818162229656608737e-03
3.500000000000000333e-01 -2.848832633935641581e-02
3.599999999999999867e-01 -5.648771658593468303e-02
3.699999999999999956e-01 -8.450520556064337885e-02
3.800000000000000044e-01 -1.111111725499367570e-01
3.900000000000000133e-01 -1.351929324660559317e-01
4.000000000000000222e-01 -1.550275900385767180e-01
4.100000000000000311e-01 -1.696621662128931507e-01
4.199999999999999845e-01 -1.776729160890011816e-01
4.299999999999999933e-01 -1.781595249271737680e-01
4.400000000000000022e-01 -1.705664217378249636e-01
4.500000000000000111e-01 -1.540157980118559977e-01
4.600000000000000200e-01 -1.291748548492977489e-01
4.700000000000000289e-01 -9.530143500361032416e-02
4.799999999999999822e-01 -5.429145849441676525e-02
4.899999999999999911e-01 -5.825137621914729114e-03
5.000000000000000000e-01 4.750694956417072373e-02
5.100000000000000089e-01 1.047768292769306331e-01
5.200000000000000178e-01 1.635945339172943103e-01
5.300000000000000266e-01 2.219687406625288073e-01
5.400000000000000355e-01 2.775827128293352763e-01
5.500000000000000444e-01 3.281935266630726655e-01
5.600000000000000533e-01 3.713321693241586341e-01
5.700000000000000622e-01 4.054570891051703652e-01
5.799999999999999600e-01 4.277527084663111379e-01
5.899999999999999689e-01 4.382300598158098692e-01
5.999999999999999778e-01 4.336843864575912200e-01
6.099999999999999867e-01 4.159522591355875876e-01
6.199999999999999956e-01 3.823666541284295728e-01
6.300000000000000044e-01 3.356591576933660726e-01
6.400000000000000133e-01 2.750464824366257721e-01
6.500000000000000222e-01 2.032044646574656666e-01
6.600000000000000311e-01 1.213962838026532987e-01
6.700000000000000400e-01 3.231076727428126155e-02
6.800000000000000488e-01 -6.140347008450515454e-02
6.900000000000000577e-01 -1.567693457025008952e-01
7.000000000000000666e-01 -2.508430082541525108e-01
7.099999999999999645e-01 -3.399849433794887021e-01
7.199999999999999734e-01 -4.222323056996502011e-01
7.299999999999999822e-01 -4.929617492342657226e-01
7.399999999999999911e-01 -5.518468170886916546e-01
7.500000000000000000e-01 -5.946864450512199252e-01
7.600000000000000089e-01 -6.218268860263069797e-01
7.700000000000000178e-01 -6.308090310690136482e-01
7.800000000000000266e-01 -6.222340244368828044e-01
7.900000000000000355e-01 -5.960129957879434226e-01
8.000000000000000444e-01 -5.528702554799113100e-01
8.100000000000000533e-01 -4.950385992129865409e-01
8.200000000000000622e-01 -4.235187965157446444e-01
8.300000000000000711e-01 -3.421544430020666550e-01
8.399999999999999689e-01 -2.526116020351198421e-01
8.499999999999999778e-01 -1.591059441110866113e-01
8.599999999999999867e-01 -6.451663070694590996e-02
8.699999999999999956e-01 2.776737727870230016e-02
8.800000000000000044e-01 1.141439847646981420e-01
8.900000000000000133e-01 1.920937034986543168e-01
9.000000000000000222e-01 2.585661416520177447e-01
9.100000000000000311e-01 3.115041906270628602e-01
9.200000000000000400e-01 3.495737011450363307e-01
9.300000000000000488e-01 3.709159810748514086e-01
9.400000000000000577e-01 3.765474860124052303e-01
9.500000000000000666e-01 3.648015598209283783e-01
9.599999999999999645e-01 3.389925893822521297e-01
9.699999999999999734e-01 2.979291685025254321e-01
9.799999999999999822e-01 2.461684808639984512e-01
9.899999999999999911e-01 1.844505338729528210e-01
1.000000000000000000e+00 1.167380148358800190e-01
1.010000000000000009e+00 4.548448413493995368e-02
1.020000000000000018e+00 -2.588130956605781685e-02
1.030000000000000027e+00 -9.440566635335069512e-02
1.040000000000000036e+00 -1.569138381843335484e-01
1.050000000000000044e+00 -2.112591369413163722e-01
1.060000000000000053e+00 -2.542604392849431849e-01
1.070000000000000062e+00 -2.856202251195755215e-01
1.080000000000000071e+00 -3.020649176685561987e-01
1.090000000000000080e+00 -3.054276985566480862e-01
1.100000000000000089e+00 -2.932029760342784175e-01
1.110000000000000098e+00 -2.683155688468639166e-01
1.120000000000000107e+00 -2.302901389295042012e-01
1.130000000000000115e+00 -1.820263680618544044e-01
1.140000000000000124e+00 -1.250550876542380341e-01
1.150000000000000133e+00 -6.222215522743891614e-02
1.159999999999999920e+00 3.800031979539895965e-03
1.169999999999999929e+00 7.004082523691330942e-02
1.179999999999999938e+00 1.338773588539460269e-01
1.189999999999999947e+00 1.919670819456373856e-01
1.199999999999999956e+00 2.429354946620334299e-01
1.209999999999999964e+00 2.829129385263055019e-01
1.219999999999999973e+00 3.122384802100558465e-01
1.229999999999999982e+00 3.278547206388227608e-01
1.239999999999999991e+00 3.308032576715413953e-01
1.250000000000000000e+00 3.198537185824212314e-01
1.260000000000000009e+00 2.963594557095307058e-01
1.270000000000000018e+00 2.611141907887501445e-01
1.280000000000000027e+00 2.156972742891406780e-01
1.290000000000000036e+00 1.624743298149065596e-01
1.300000000000000044e+00 1.033909816880900778e-01
1.310000000000000053e+00 4.143855855100626179e-02
1.320000000000000062e+00 -2.079904148287294377e-02
1.330000000000000071e+00 -8.081735486271497682e-02
1.340000000000000080e+00 -1.353628715042876629e-01
1.350000000000000089e+00 -1.829939622390410470e-01
1.360000000000000098e+00 -2.207180149800762881e-01
1.370000000000000107e+00 -2.477907180392372732e-01
1.380000000000000115e+00 -2.624966193876769327e-01
1.390000000000000124e+00 -2.644884410040099221e-01
1.400000000000000133e+00 -2.538893104002035717e-01
1.409999999999999920e+00 -2.306352785649339876e-01
1.419999999999999929e+00 -1.966625530416979128e-01
1.429999999999999938e+00 -1.522999632433582329e-01
1.439999999999999947e+00 -1.007002368261517011e-01
1.449999999999999956e+00 -4.287383768903702680e-02
1.459999999999999964e+00 1.785058274936452555e-02
1.469999999999999973e+00 7.934366183053455368e-02
1.479999999999999982e+00 1.390304523848387153e-01
1.489999999999999991e+00 1.943369243963756765e-01
1.500000000000000000e+00 2.432398042022042850e-01
1.510000000000000009e+00 2.837794582075098271e-01
1.520000000000000018e+00 3.142300725161417674e-01
1.530000000000000027e+00 3.340635517303456870e-01
1.540000000000000036e+00 3.417144623037327578e-01
1.550000000000000044e+00 3.384428581501221500e-01
1.560000000000000053e+00 3.228995100797594775e-01
1.570000000000000062e+00 2.978042627064679260e-01
1.580000000000000071e+00 2.626886186696927306e-01
1.590000000000000080e+00 2.206135758763000387e-01
1.600000000000000089e+00 1.725589000675298301e-01
1.610000000000000098e+00 1.211607320377026259e-01
1.620000000000000107e+00 6.834321965491302331e-02
1.630000000000000115e+00 1.642334059658857870e-02
1.640000000000000124e+00 -3.266579487559449074e-02
1.650000000000000133e+00 -7.675031274181637331e-02
1.660000000000000142e+00 -1.147653361320244425e-01
1.669999999999999929e+00 -1.445555820167674643e-01
1.679999999999999938e+00 -1.665079931045372330e-01
1.689999999999999947e+00 -1.785078832664933890e-01
1.699999999999999956e+00 -1.822474921277879023e-01
1.709999999999999964e+00 -1.767016408200296484e-01
1.719999999999999973e+00 -1.637681261109061870e-01
1.729999999999999982e+00 -1.438622181734604544e-01
1.739999999999999991e+00 -1.188591266176202421e-01
1.750000000000000000e+00 -9.022009766584412893e-02
1.760000000000000009e+00 -5.982074257875699685e-02
1.770000000000000018e+00 -2.944466085307965303e-02
1.780000000000000027e+00 -1.084726044957156320e-03
1.790000000000000036e+00 2.396448494935004767e-02
1.800000000000000044e+00 4.348655159253674019e-02
1.810000000000000053e+00 5.724072212878557331e-02
1.820000000000000062e+00 6.310290448396822793e-02
1.830000000000000071e+00 6.172227443837697419e-02
1.840000000000000080e+00 5.190811944008709433e-02
1.850000000000000089e+00 3.460258494910053995e-02
1.860000000000000098e+00 9.886100910290157584e-03
1.870000000000000107e+00 -2.114272706757317280e-02
1.880000000000000115e+00 -5.732154978757335317e-02
1.890000000000000124e+00 -9.738344964908056400e-02
1.900000000000000133e+00 -1.396183533872137617e-01
1.910000000000000142e+00 -1.824782743431121179e-01
1.919999999999999929e+00 -2.244243349645554941e-01
1.929999999999999938e+00 -2.634977490150262058e-01
1.939999999999999947e+00 -2.988650593522073629e-01
1.949999999999999956e+00 -3.286002275603209788e-01
1.959999999999999964e+00 -3.524350616712350615e-01
1.969999999999999973e+00 -3.691182728579324723e-01
1.979999999999999982e+00 -3.786988043667384174e-01
1.989999999999999991e+00 -3.809784678521223600e-01
2.000000000000000000e+00 -3.761951552469087190e-01
2.010000000000000231e+00 -3.652109932851778651e-01
2.020000000000000018e+00 -3.484441308529339643e-01
2.030000000000000249e+00 -3.274808043129628365e-01
2.040000000000000036e+00 -3.030050306552795614e-01
2.049999999999999822e+00 -2.767476037255284238e-01
2.060000000000000053e+00 -2.497998897226203774e-01
2.069999999999999840e+00 -2.234787262949311237e-01
2.080000000000000071e+00 -1.990409507898881214e-01
2.089999999999999858e+00 -1.773026156050598878e-01
2.100000000000000089e+00 -1.591687304261901192e-01
2.109999999999999876e+00 -1.450780287536046487e-01
2.120000000000000107e+00 -1.351979227075116308e-01
2.129999999999999893e+00 -1.296501748509984175e-01
2.140000000000000124e+00 -1.277846986857880673e-01
2.149999999999999911e+00 -1.293710955273390528e-01
2.160000000000000142e+00 -1.331874603024759962e-01
2.169999999999999929e+00 -1.385353140322003185e-01
2.180000000000000160e+00 -1.440927658776390008e-01
2.189999999999999947e+00 -1.486384978175139815e-01
2.200000000000000178e+00 -1.511204368139552334e-01
2.209999999999999964e+00 -1.502103496587326448e-01
2.220000000000000195e+00 -1.450837886493927531e-01
2.229999999999999982e+00 -1.348644019019894780e-01
2.240000000000000213e+00 -1.188979377750440380e-01
2.250000000000000000e+00 -9.716667366210487988e-02
2.260000000000000231e+00 -6.920119656275811049e-02
2.270000000000000018e+00 -3.595938490670422261e-02
2.280000000000000249e+00 2.716379550792956052e-03
2.290000000000000036e+00 4.516270428920368674e-02
2.300000000000000266e+00 9.086880994700524683e-02
2.310000000000000053e+00 1.380596789392030677e-01
2.319999999999999840e+00 1.854347433607320128e-01
2.330000000000000071e+00 2.314109977338449087e-01
2.339999999999999858e+00 2.743735237190058074e-01
2.350000000000000089e+00 3.128210190485765652e-01
2.359999999999999876e+00 3.455056426378398382e-01
2.370000000000000107e+00 3.708875878037548035e-01
2.379999999999999893e+00 3.886783738899541318e-01
2.390000000000000124e+00 3.972534306583246910e-01
2.399999999999999911e+00 3.976192201564290873e-01
2.410000000000000142e+00 3.881552389472761599e-01
2.419999999999999929e+00 3.708902413419973287e-01
2.430000000000000160e+00 3.451834276176742322e-01
2.439999999999999947e+00 3.130525396281494399e-01
2.450000000000000178e+00 2.751083157626192932e-01
2.459999999999999964e+00 2.332083614583242148e-01
2.470000000000000195e+00 1.887974713386628145e-01
2.479999999999999982e+00 1.436645058929508778e-01
2.490000000000000213e+00 9.941327798225692292e-02
2.500000000000000000e+00 5.791229721315257345e-02
2.510000000000000231e+00 2.020951126696373182e-02
2.520000000000000018e+00 -1.163127141356884442e-02
2.530000000000000249e+00 -3.758770033963317742e-02
2.540000000000000036e+00 -5.568386085287718029e-02
2.550000000000000266e+00 -6.671411919978197103e-02
2.560000000000000053e+00 -6.959685157756374807e-02
2.569999999999999840e+00 -6.533325102434195397e-02
2.580000000000000071e+00 -5.403283169023296445e-02
2.589999999999999858e+00 -3.679055895804761445e-02
2.600000000000000089e+00 -1.470974176337250250e-02
2.609999999999999876e+00 1.099652755264130671e-02
2.620000000000000107e+00 3.873257444612748790e-02
2.629999999999999893e+00 6.705301705319054173e-02
2.640000000000000124e+00 9.453159783275115469e-02
2.649999999999999911e+00 1.193658611012489434e-01
2.660000000000000142e+00 1.407925153328128953e-01
2.669999999999999929e+00 1.570423566648617431e-01
2.680000000000000160e+00 1.678980223581613140e-01
2.689999999999999947e+00 1.722214523539646047e-01
2.700000000000000178e+00 1.701067586008483401e-01
2.709999999999999964e+00 1.614018217811132583e-01
2.720000000000000195e+00 1.464067898432373782e-01
2.729999999999999982e+00 1.259602692098967247e-01
2.740000000000000213e+00 1.005837654390844549e-01
2.750000000000000000e+00 7.178304906930757512e-02
2.760000000000000231e+00 4.041481651739239206e-02
2.770000000000000018e+00 8.097799511821062238e-03
2.780000000000000249e+00 -2.383779446382528616e-02
2.790000000000000036e+00 -5.415764360730779270e-02
2.800000000000000266e+00 -8.134693257865591165e-02
2.810000000000000053e+00 -1.045762967408325333e-01
2.819999999999999840e+00 -1.226987197683776371e-01
2.830000000000000071e+00 -1.351429186782357184e-01
2.839999999999999858e+00 -1.415684188820884593e-01
2.850000000000000089e+00 -1.415774227197863777e-01
2.859999999999999876e+00 -1.357953047709147265e-01
2.870000000000000107e+00 -1.240161833316791584e-01
2.879999999999999893e+00 -1.076724463996853176e-01
2.890000000000000124e+00 -8.686952408218139021e-02
2.899999999999999911e+00 -6.335779453005049855e-02
2.910000000000000142e+00 -3.789834693403953264e-02
2.919999999999999929e+00 -1.194880736470537060e-02
2.930000000000000160e+00 1.330515791919272515e-02
2.939999999999999947e+00 3.669300126099476339e-02
2.950000000000000178e+00 5.714190555553794182e-02
2.959999999999999964e+00 7.366908710965616724e-02
2.970000000000000195e+00 8.579362330811944604e-02
2.979999999999999982e+00 9.265961191913912876e-02
2.990000000000000213e+00 9.464452918067749188e-02
3.000000000000000000e+00 9.104682550170307975e-02
3.010000000000000231e+00 8.302723536761950907e-02
3.020000000000000018e+00 7.032713699025469611e-02
3.030000000000000249e+00 5.440110933620359579e-02
3.040000000000000036e+00 3.574760826978660294e-02
3.050000000000000266e+00 1.568976970255261255e-02
3.060000000000000053e+00 -4.753267382904264975e-03
3.070000000000000284e+00 -2.436195855379902700e-02
3.080000000000000071e+00 -4.209333825356003506e-02
3.089999999999999858e+00 -5.676040524673940657e-02
3.100000000000000089e+00 -6.778864011191611250e-02
3.109999999999999876e+00 -7.397669786315994034e-02
3.120000000000000107e+00 -7.556301832048188671e-02
3.129999999999999893e+00 -7.136540839608315756e-02
3.140000000000000124e+00 -6.237921518297473433e-02
3.149999999999999911e+00 -4.802868666355179089e-02
3.160000000000000142e+00 -2.946899817080063030e-02
3.169999999999999929e+00 -6.972514857675223346e-03
3.180000000000000160e+00 1.830644072275642784e-02
3.189999999999999947e+00 4.546524531329641794e-02
3.200000000000000178e+00 7.332756861506269097e-02
3.209999999999999964e+00 1.008002876581205742e-01
3.220000000000000195e+00 1.266086047528058312e-01
3.229999999999999982e+00 1.499739086844827651e-01
3.240000000000000213e+00 1.694555379696651431e-01
3.250000000000000000e+00 1.849569760001213148e-01
3.260000000000000231e+00 1.950514887095211591e-01
3.270000000000000018e+00 2.002340492701185082e-01
3.280000000000000249e+00 1.996769088448329954e-01
3.290000000000000036e+00 1.940420218271081132e-01
3.300000000000000266e+00 1.833433993725061828e-01
3.310000000000000053e+00 1.683257312514692405e-01
3.320000000000000284e+00 1.497312386025606290e-01
3.330000000000000071e+00 1.283972105682968101e-01
3.339999999999999858e+00 1.054510120093608005e-01
3.350000000000000089e+00 8.189649526867509577e-02
3.359999999999999876e+00 5.877472280412345679e-02
3.370000000000000107e+00 3.733904664768588483e-02
3.379999999999999893e+00 1.817358604208138204e-02
3.390000000000000124e+00 2.524869519316747489e-03
3.399999999999999911e+00 -9.433729113876196740e-03
3.410000000000000142e+00 -1.689339917754228287e-02
3.419999999999999929e+00 -1.992466469255184044e-02
3.430000000000000160e+00 -1.841928303359470845e-02
3.439999999999999947e+00 -1.261742615263505320e-02
3.450000000000000178e+00 -3.115690360945851285e-03
3.459999999999999964e+00 9.666020392179029697e-03
3.470000000000000195e+00 2.466526535239377260e-02
3.479999999999999982e+00 4.120456440581636570e-02
3.490000000000000213e+00 5.816156414516353984e-02
3.500000000000000000e+00 7.452018774497667919e-02
3.510000000000000231e+00 8.945074237370738424e-02
3.520000000000000018e+00 1.018382370677008986e-01
3.530000000000000249e+00 1.111518692175773038e-01
3.540000000000000036e+00 1.165893135216921478e-01
3.550000000000000266e+00 1.178221128514085891e-01
3.560000000000000053e+00 1.146714056860823339e-01
3.570000000000000284e+00 1.069648211572282459e-01
3.580000000000000071e+00 9.523819559917723332e-02
3.589999999999999858e+00 7.950805980529163097e-02
3.600000000000000089e+00 6.086974989744451531e-02
3.609999999999999876e+00 3.963592647662139701e-02
3.620000000000000107e+00 1.708290616910550230e-02
3.629999999999999893e+00 -5.990858873514498528e-03
3.640000000000000124e+00 -2.852805591717118630e-02
3.649999999999999911e+00 -4.947542988558849275e-02
3.660000000000000142e+00 -6.797357148314607522e-02
3.669999999999999929e+00 -8.315231765733092917e-02
3.680000000000000160e+00 -9.426720371465105441e-02
3.689999999999999947e+00 -1.010078629135160722e-01
3.700000000000000178e+00 -1.027007340601899937e-01
3.709999999999999964e+00 -9.979024685259828276e-02
3.720000000000000195e+00 -9.170700952930252448e-02
3.729999999999999982e+00 -7.956197907708037476e-02
3.740000000000000213e+00 -6.313941944187127786e-02
3.750000000000000000e+00 -4.378082501450192981e-02
3.760000000000000231e+00 -2.192098893579476349e-02
3.770000000000000018e+00 1.256745573123357450e-03
3.780000000000000249e+00 2.486698010959512845e-02
3.790000000000000036e+00 4.784532469098301544e-02
3.800000000000000266e+00 6.928389913757931895e-02
3.810000000000000053e+00 8.816381207945810095e-02
3.820000000000000284e+00 1.039737226334410541e-01
3.830000000000000071e+00 1.156887473781174486e-01
3.839999999999999858e+00 1.234863787362823762e-01
3.850000000000000089e+00 1.263525570264136533e-01
3.859999999999999876e+00 1.251117754914030378e-01
